#Acq. time (s)=	5
#Accumulations=	5
#Range (cm-¹)=	100...3500
#Windows=	4
#Autofocus=	Off
#AutoExposure=	Off
#Spike filter=	Multiple accum.
#Delay time (s)=	0
#Binning=	1
#Readout mode=	Signal
#DeNoise=	Off
#ICS correction=	Off
#Dark correction=	Off
#Inst. Process=	Off
#Instrument=	LabRAM HR Evol
#Detector=	Syncerity OE
#Objective=	x100_VIS
#Grating=	600 (500nm)
#ND Filter=	25%
#Laser=	633nm_Edge
#Hole=	100.021
#Range=	Visible
#Project=	verificaciones
#Sample=	a4
#Site=	plain
#Title=	bolusa4plain
#Remark=	
#Date=	09.01.2026 14:40
#Acquired=	09.01.2026 14:40:23
100.695	25.5
101.978	30
103.262	33
104.545	28.5
105.829	30
107.112	33
108.394	29
109.676	34
110.958	28
112.24	31
113.522	29
114.803	29.5
116.084	32
117.365	30
118.646	30
119.927	27.5
121.207	35
122.487	30
123.767	37
125.047	32
126.326	34
127.606	33.5
128.885	32
130.164	26
131.442	33
132.721	35.5
133.999	40
135.277	30
136.555	38
137.831	32.5
139.109	38.5
140.386	39
141.663	38.5
142.94	37.5
144.216	34
145.493	43.5
146.769	36
148.043	39.5
149.319	38
150.595	40.5
151.87	40
153.145	37
154.42	38
155.693	40
156.968	43
158.242	41
159.516	41
160.79	42.5
162.062	44.5
163.336	40
164.609	43
165.882	45.5
167.153	37
168.426	35
169.699	41
170.971	39
172.241	42.5
173.513	43
174.785	40
176.055	40.5
177.326	35
178.597	37
179.866	39
181.137	43
182.407	37.5
183.676	42
184.946	46
186.216	44.5
187.484	43.5
188.753	39.5
190.022	39.5
191.29	43
192.558	41
193.825	44.5
195.094	35
196.36	40.5
197.628	40.5
198.896	36
200.162	39
201.429	37
202.695	39.5
203.962	38
205.227	40.5
206.493	35
207.758	41
209.024	38
210.289	35.5
211.554	37.5
212.818	33
214.083	36.5
215.347	34.5
216.612	35
217.875	33
219.138	34
220.402	32.5
221.665	34.5
222.928	37
224.19	34
225.454	34
226.715	32.5
227.977	34
229.24	32.5
230.501	36
231.762	33.5
233.024	31
234.284	31
235.546	32
236.806	33
238.066	32
239.327	34
240.587	29.5
241.846	27.5
243.105	28.5
244.365	28
245.624	30
246.882	32
248.142	36
249.4	31
250.658	29
251.916	34.5
253.174	26.5
254.432	25
255.689	31.5
256.945	26
258.202	33
259.46	32.5
260.716	30
261.972	31.5
263.228	32.5
264.483	28.5
265.74	27
266.996	29.5
268.251	30.5
269.505	26
270.76	30
272.014	32.5
273.268	28.5
274.522	30.5
275.778	29
277.031	28.5
278.285	29.5
279.538	27
280.791	24.5
282.043	27
283.296	31
284.548	28.5
285.8	26.5
287.052	30
288.304	22.5
289.556	37
290.807	27.5
292.058	31
293.309	28.5
294.56	27.5
295.81	26
297.061	28.5
298.311	28
299.561	28
300.81	29.5
302.06	32
303.309	28
304.558	30
305.807	24.5
307.056	30
308.305	33
309.551	31
310.8	29
312.047	25.5
313.295	27.5
314.543	31
315.79	28.5
317.037	29.5
318.284	27
319.529	34
320.776	28.5
322.022	30
323.268	28
324.514	30
325.758	31.5
327.004	26
328.249	29.5
329.494	30.5
330.739	26.5
331.982	29
333.227	35
334.471	28
335.715	23
336.958	25.5
338.201	29
339.445	31.5
340.687	30
341.93	34
343.173	28.5
344.414	27
345.657	28.5
346.899	26.5
348.14	31
349.381	32
350.623	32.5
351.863	29
353.104	31
354.346	33.5
355.585	32
356.826	28
358.065	29
359.305	27
360.545	28
361.784	22
363.023	31
364.261	30.5
365.501	27.5
366.738	32
367.977	28
369.216	27
370.453	28
371.691	30.5
372.928	31
374.166	29.5
375.402	31
376.64	30
377.876	27
379.111	29
380.348	25.5
381.584	28
382.82	29.5
384.055	29.5
385.291	33
386.526	28
387.76	29.5
388.996	31.5
390.229	30
391.465	31.5
392.698	28
393.931	32
395.166	30
396.399	33.5
397.632	31
398.866	29.5
400.098	30
401.33	30
402.563	27.5
403.795	30
405.027	29.5
406.259	28
407.491	28
408.721	28.5
409.954	29.5
411.184	31
412.415	28.5
413.645	29
414.876	27.5
416.106	30
417.335	32.5
418.565	29.5
419.794	29.5
421.024	26
422.253	28.5
423.482	27
424.71	28
425.938	30.5
427.168	31
428.396	29.5
429.623	29
430.851	28.5
432.078	31.5
433.305	32
434.532	26.5
435.758	31.5
436.986	34
438.212	29
439.438	25.5
440.664	30
441.89	28.5
443.115	27
444.34	29
445.566	26.5
446.79	29
448.015	31.5
449.24	32
450.464	25.5
451.688	30.5
452.912	29.5
454.135	27
455.359	30.5
456.582	30.5
457.805	32
459.028	31.5
460.251	24
461.473	32.5
462.696	34.5
463.918	34.5
465.14	34.5
466.36	29
467.582	32
468.803	29.5
470.024	32
471.245	37
472.466	34
473.686	40
474.907	37
476.126	35
477.346	40
478.565	44
479.785	45
481.004	44
482.224	49
483.441	52
484.66	60
485.879	54
487.097	60.5
488.314	60.5
489.532	61
490.75	57
491.967	55.5
493.184	51
494.401	56
495.618	57
496.835	47.5
498.05	49.5
499.267	46
500.483	51
501.698	45.5
502.913	44
504.129	41.5
505.343	38
506.559	39
507.774	38
508.987	37
510.202	39.5
511.415	36
512.63	33
513.844	38
515.056	34
516.27	36
517.482	35
518.696	31
519.907	35.5
521.121	33
522.332	31
523.545	33
524.757	34
525.968	30
527.18	32
528.39	32
529.602	29.5
530.812	35
532.023	33.5
533.233	30.5
534.443	25.5
535.653	34
536.862	26.5
538.073	30.5
539.281	26
540.491	31
541.7	32.5
542.908	28.5
544.117	27.5
545.325	33
546.534	32.5
547.741	32
548.949	28.5
550.157	30
551.364	29.5
552.57	29
553.778	30.5
554.985	32
556.191	28.5
557.398	28.5
558.604	27
559.809	26.5
561.014	27.5
562.221	30.5
563.426	25
564.63	29
565.835	29.5
567.041	30.5
568.245	32
569.449	33
570.653	27.5
571.856	30
573.061	23.5
574.264	23
575.467	25
576.67	32
577.873	31
579.076	30
580.279	29
581.481	31
582.683	24.5
583.884	28.5
585.086	29.5
586.287	28
587.488	28
588.689	26
589.891	29.5
591.092	31
592.292	33
593.492	25
594.692	32
595.892	29.5
597.092	32
598.291	29.5
599.49	26
600.689	29.5
601.888	33
603.087	28
604.285	32
605.483	26.5
606.681	32
607.879	26
609.077	27.5
610.274	29
611.472	29
612.668	30
613.865	29
615.061	30
616.258	29
617.454	28.5
618.65	31
619.846	28
621.042	27.5
622.238	33.5
623.432	28
624.627	30
625.822	32.5
627.017	27.5
628.212	31.5
629.406	31
630.599	33
631.793	30.5
632.987	29.5
634.181	31.5
635.373	23.5
636.566	30
637.76	26
638.953	28.5
640.144	30.5
641.337	31.5
642.529	30.5
643.721	30.5
644.912	31
646.104	26.5
647.295	29
648.485	27
649.677	30
650.868	35.5
652.057	29
653.248	27.5
654.437	32
655.628	29
656.818	32
658.006	28
659.196	29
660.384	29
661.574	31
662.763	28.5
663.951	27.5
665.14	33
666.327	29.5
667.515	32
668.702	32.5
669.891	30
671.077	26
672.265	35
673.451	28
674.638	34
675.824	30.5
677.011	32
678.197	30
679.383	35
680.568	24
681.755	35.5
682.939	36
684.124	37.5
685.309	33
686.494	40
687.679	37
688.863	37
690.046	38.5
691.231	37
692.414	35
693.599	36.5
694.781	35.5
695.964	38
697.148	36
698.33	33
699.512	37
700.694	35.5
701.877	39.5
703.059	36.5
704.24	39.5
705.423	46
706.604	43
707.784	47.5
708.965	56
710.147	50
711.327	48.5
712.507	47
713.687	42.5
714.867	39.5
716.048	37
717.227	33
718.406	35.5
719.585	33
720.764	30
721.942	31
723.122	31
724.3	28
725.478	30
726.656	30.5
727.834	32
729.011	30.5
730.189	28.5
731.366	26
732.543	31.5
733.719	29
734.896	33
736.072	26
737.249	28
738.426	28
739.602	29
740.777	33.5
741.953	26
743.128	34.5
744.303	29
745.477	29
746.651	29.5
747.826	32.5
749	29.5
750.174	30.5
751.348	30
752.522	30.5
753.696	30
754.869	30.5
756.043	32
757.216	29.5
758.389	28.5
759.561	32
760.732	23
761.905	26
763.077	30.5
764.249	28
765.421	28.5
766.592	28
767.762	28
768.934	31
770.105	25
771.275	27.5
772.446	32
773.615	29
774.786	33
775.956	30
777.126	30.5
778.294	29
779.464	31
780.633	27
781.801	30
782.97	34
784.139	29.5
785.306	36.5
786.475	28
787.643	33.5
788.81	31
789.978	35.5
791.146	29.5
792.312	30
793.479	31.5
794.647	33
795.812	26
796.979	32.5
798.144	29.5
799.311	29
800.477	28
801.642	34
802.808	27.5
803.972	34
805.138	29
806.302	30.5
807.467	27
808.631	30.5
809.796	24
810.959	32.5
812.124	27.5
813.287	32
814.451	26
815.614	29.5
816.777	27.5
817.94	30
819.102	30.5
820.265	28
821.427	29.5
822.59	29
823.751	31
824.912	27.5
826.074	25.5
827.235	27.5
828.397	29
829.558	24
830.718	29
831.879	27
833.039	25.5
834.199	31.5
835.359	28.5
836.519	30
837.679	26.5
838.838	24.5
839.998	30
841.156	27
842.315	32
843.473	28
844.633	31.5
845.791	28
846.948	31
848.106	22.5
849.263	27.5
850.422	27.5
851.579	32
852.736	27
853.892	30
855.049	29.5
856.205	25.5
857.363	31.5
858.519	29
859.674	27.5
860.83	31
861.986	28
863.141	32.5
864.296	30
865.451	26
866.605	27
867.76	29
868.914	29
870.069	28.5
871.224	26
872.378	29
873.531	30
874.685	32
875.838	31.5
876.991	28
878.144	24
879.296	24.5
880.448	30
881.6	33
882.753	28.5
883.905	27.5
885.057	28
886.208	30.5
887.36	26
888.511	25
889.662	30.5
890.813	26.5
891.964	29.5
893.113	29
894.264	27
895.414	30
896.564	27.5
897.714	26
898.864	26.5
900.012	23
901.161	31
902.31	28.5
903.459	25.5
904.607	28
905.756	24
906.904	25
908.052	25
909.199	25
910.347	29.5
911.495	27
912.643	30.5
913.789	27.5
914.936	28
916.083	25
917.229	29
918.375	30.5
919.522	29.5
920.667	27.5
921.813	28
922.959	30
924.104	28
925.249	27
926.393	25
927.539	22.5
928.684	33
929.827	26
930.972	29
932.115	27.5
933.26	32
934.403	27
935.547	30
936.689	31.5
937.833	25
938.975	25.5
940.119	23
941.26	27.5
942.404	25
943.545	29
944.688	25
945.829	29
946.971	26
948.112	29.5
949.253	26.5
950.394	26.5
951.535	29.5
952.676	28.5
953.816	27
954.956	31
956.097	27
957.236	25.5
958.377	30
959.516	27
960.655	27.5
961.793	25
962.933	27.5
964.071	30
965.21	25.5
966.349	27.5
967.487	22
968.624	28
969.762	28
970.901	29
972.038	28
973.175	22
974.311	27.5
975.449	29
976.586	24
977.722	27
978.858	24.5
979.994	25
981.131	26
982.267	30.5
983.402	24.5
984.537	30
985.672	25
986.807	28
987.942	26
989.076	28
990.211	23
991.346	25.5
992.48	26
993.614	26
994.748	27.5
995.881	30
997.014	25.5
998.148	26
999.28	24
1000.41	26
1001.55	27.5
1002.68	28
1003.81	30
1004.94	25.5
1006.07	28
1007.21	29
1008.34	27.5
1009.47	26
1010.6	23
1011.73	23
1012.86	27.5
1013.99	25.5
1015.12	28.5
1016.25	23
1017.38	32
1018.51	27.5
1019.64	26.5
1020.77	25
1021.9	28
1023.03	23.5
1024.16	28
1025.29	31
1026.42	28
1027.54	24
1028.67	25.5
1029.8	24
1030.93	21.5
1032.06	28
1033.18	28
1034.31	22
1035.44	29.5
1036.56	29
1037.69	27.5
1038.82	26
1039.94	29
1041.07	24
1042.2	30
1043.32	22.5
1044.45	26
1045.57	24
1046.7	28.5
1047.82	26
1048.95	30.5
1050.07	24
1051.2	29
1052.32	28
1053.45	31
1054.57	23
1055.69	23.5
1056.82	23.5
1057.94	24
1059.06	25.5
1060.19	28.5
1061.31	26
1062.43	29
1063.55	22.5
1064.68	25
1065.8	27
1066.92	26
1068.04	27
1069.16	26.5
1070.28	26.5
1071.41	26
1072.53	26.5
1073.65	27
1074.77	24
1075.89	29.5
1077.01	27
1078.13	26
1079.25	24
1080.37	24.5
1081.49	27
1082.61	28.5
1083.73	27
1084.85	23.5
1085.96	24
1087.08	27
1088.2	30
1089.32	28
1090.44	26
1091.56	25.5
1092.67	28.5
1093.79	25.5
1094.91	27
1096.03	23.5
1097.14	23.5
1098.26	25
1099.38	27
1100.49	22
1101.61	29
1102.73	27
1103.84	23.5
1104.96	20.5
1106.07	27.5
1107.19	23
1108.3	25
1109.42	26.5
1110.53	25.5
1111.65	28
1112.76	28.5
1113.88	26
1114.99	29.5
1116.1	29.5
1117.22	29
1118.33	27
1119.44	23.5
1120.56	27
1121.67	26
1122.78	28
1123.9	24
1125.01	26
1126.12	23
1127.23	29.5
1128.34	24.5
1129.46	26
1130.57	22.5
1131.68	24.5
1132.79	23.5
1133.9	25
1135.01	25
1136.12	24.5
1137.23	27.5
1138.34	29
1139.45	25.5
1140.56	25.5
1141.67	21.5
1142.78	27.5
1143.89	27
1145	24.5
1146.11	26
1147.22	26
1148.33	22.5
1149.44	25.5
1150.54	27.5
1151.65	22
1152.76	26
1153.87	28.5
1154.97	27
1156.08	25
1157.19	28
1158.3	25
1159.4	22.5
1160.51	25.5
1161.62	24.5
1162.72	23
1163.83	28.5
1164.93	23
1166.04	30.5
1167.15	26.5
1168.25	29
1169.36	23
1170.46	22.5
1171.57	28
1172.67	28
1173.78	24.5
1174.88	26
1175.98	25.5
1177.09	24.5
1178.19	24.5
1179.3	26
1180.4	26
1181.5	28
1182.61	26
1183.71	22
1184.81	28
1185.91	28
1187.02	26
1188.12	21
1189.22	29.5
1190.32	30.5
1191.42	27
1192.53	26
1193.63	28
1194.73	23.9892
1195.83	24.454
1196.93	26.9148
1198.03	25.0495
1199.13	21.6449
1200.23	25.989
1201.33	27.3231
1202.43	23.5216
1203.53	26.7953
1204.63	23.4164
1205.73	23.8887
1206.83	25.2246
1207.93	26.818
1209.02	23.7291
1210.12	23.2099
1211.22	27
1212.32	23.9
1213.42	24.4004
1214.52	26.1146
1215.61	28.8526
1216.71	25.7063
1217.81	25.3293
1218.91	26.2218
1220	28.4989
1221.1	27.7256
1222.2	26.7834
1223.29	26.4586
1224.39	27.8774
1225.49	27.045
1226.58	27.3234
1227.68	27.549
1228.77	22.5144
1229.87	24.2398
1230.96	25.397
1232.06	24.2587
1233.15	27.0766
1234.25	24.6132
1235.34	25.0609
1236.44	24.9172
1237.53	26.8668
1238.63	26.1125
1239.72	25.8318
1240.81	24.125
1241.91	25.7732
1243	25.6866
1244.09	23.6849
1245.19	25.9732
1246.28	24.4973
1247.37	24.2937
1248.46	24.7985
1249.56	25.4547
1250.65	22.0353
1251.74	24.9908
1252.83	26.546
1253.92	24.7228
1255.01	24.8447
1256.11	27.8202
1257.2	27.4417
1258.29	27.2703
1259.38	29.2276
1260.47	31.6385
1261.56	26.9663
1262.65	27.4793
1263.74	29.4062
1264.83	26.491
1265.92	25.0262
1267.01	28.6555
1268.1	25.3952
1269.19	26.3049
1270.27	26.4897
1271.36	25.0456
1272.45	25.2354
1273.54	24.2054
1274.63	23.373
1275.72	24.541
1276.8	26.9089
1277.89	24.5999
1278.98	23.4721
1280.07	23.8083
1281.15	23.284
1282.24	25.0828
1283.33	26.3272
1284.41	22.4957
1285.5	24.3515
1286.59	25.1108
1287.67	23.7355
1288.76	25.1307
1289.84	26.7729
1290.93	25.0943
1292.01	26.9755
1293.1	25.4795
1294.19	25.6297
1295.27	24.544
1296.35	27.8158
1297.44	27.3901
1298.52	25.0427
1299.61	26.2748
1300.69	22.6317
1301.78	22.8804
1302.86	25.5838
1303.94	26.0762
1305.03	23.8287
1306.11	26.3059
1306.4	27.5
1307.49	25
1308.57	26
1309.66	23
1310.75	29
1311.84	23
1312.92	26.5
1314.01	23
1315.1	24.5
1316.19	24
1317.27	26
1318.36	22
1319.45	24.5
1320.53	25
1321.62	24
1322.7	26
1323.79	23
1324.88	20.5
1325.96	21
1327.05	27
1328.13	25.5
1329.21	24
1330.3	26
1331.38	26
1332.47	24.5
1333.55	27.5
1334.64	24
1335.72	27
1336.8	29
1337.89	30
1338.97	27.5
1340.05	26
1341.14	25
1342.22	25
1343.3	27
1344.39	28.5
1345.47	25
1346.55	27.5
1347.63	26.5
1348.71	26
1349.79	26
1350.88	29.5
1351.96	29.5
1353.04	22
1354.12	30
1355.2	23.5
1356.28	26.5
1357.36	24
1358.44	22.5
1359.52	29.5
1360.6	25
1361.68	23
1362.76	23.5
1363.84	27
1364.92	29
1366	23
1367.08	27
1368.16	26
1369.23	25
1370.31	25
1371.39	26
1372.47	29
1373.55	24.5
1374.62	25
1375.7	26.5
1376.78	25
1377.85	24.5
1378.93	27
1380.01	25.5
1381.09	25.5
1382.16	28
1383.24	24.5
1384.31	27
1385.39	24.5
1386.47	23.5
1387.54	30.5
1388.62	25.5
1389.69	29
1390.77	28
1391.84	25
1392.92	27.5
1393.99	27.5
1395.06	28.5
1396.14	27
1397.21	26.5
1398.29	31
1399.36	32
1400.43	32.5
1401.51	27.5
1402.58	31
1403.65	33.5
1404.73	30.5
1405.8	31.5
1406.87	27.5
1407.94	30.5
1409.02	32.5
1410.09	29.5
1411.16	27
1412.23	31
1413.3	27
1414.37	36.5
1415.45	31
1416.52	33
1417.59	34.5
1418.66	30.5
1419.73	26
1420.8	27
1421.87	29
1422.94	23.5
1424.01	29
1425.08	29
1426.15	24.5
1427.22	29
1428.29	25.5
1429.35	28
1430.42	28
1431.49	29
1432.56	27
1433.63	28
1434.7	29.5
1435.77	27.5
1436.83	27.5
1437.9	27.5
1438.97	26.5
1440.04	26.5
1441.1	28
1442.17	29
1443.24	26
1444.3	28
1445.37	26
1446.44	28
1447.5	28
1448.57	31.5
1449.63	31
1450.7	28
1451.76	26
1452.83	28
1453.89	28
1454.96	26
1456.02	25.5
1457.09	22
1458.15	23
1459.22	29
1460.28	31.5
1461.34	21.5
1462.41	30
1463.47	24
1464.54	25
1465.6	23.5
1466.66	25.5
1467.72	25
1468.79	26
1469.85	25.5
1470.91	22.5
1471.97	28
1473.04	25
1474.1	24.5
1475.16	26.5
1476.22	29
1477.28	28
1478.34	28.5
1479.4	26
1480.47	29.5
1481.53	20
1482.59	29
1483.65	27
1484.71	26
1485.77	25
1486.83	26.5
1487.89	26.5
1488.95	29
1490.01	31
1491.07	30.5
1492.12	28
1493.18	24
1494.24	28.5
1495.3	25
1496.36	26.5
1497.42	25
1498.47	30
1499.53	24.5
1500.59	27.5
1501.65	27
1502.7	25.5
1503.76	28
1504.82	23
1505.88	28
1506.93	24.5
1507.99	25.5
1509.05	27
1510.1	25
1511.16	28.5
1512.21	25
1513.27	27.5
1514.32	28
1515.38	27
1516.43	26
1517.49	24.5
1518.54	27
1519.6	26.5
1520.65	26
1521.71	27
1522.76	26
1523.82	24
1524.87	25.5
1525.92	24
1526.98	23
1528.03	25.5
1529.08	26
1530.14	27
1531.19	29
1532.24	24.5
1533.3	24
1534.35	27
1535.4	24
1536.45	28
1537.5	29.5
1538.56	25.5
1539.61	28
1540.66	28
1541.71	26
1542.76	29.5
1543.81	25
1544.86	26.5
1545.91	30
1546.96	27
1548.01	21
1549.06	25
1550.11	22.5
1551.16	24.5
1552.21	24
1553.26	23
1554.31	25.5
1555.36	24
1556.41	29.5
1557.46	28
1558.51	25
1559.55	27
1560.6	25.5
1561.65	28.5
1562.7	28
1563.75	30.5
1564.79	28.5
1565.84	24
1566.89	25.5
1567.94	27
1568.98	26
1570.03	24.5
1571.07	23.5
1572.12	26
1573.17	28
1574.21	29
1575.26	25
1576.31	26.5
1577.35	27
1578.4	24
1579.44	25
1580.49	27
1581.53	24.5
1582.58	29
1583.62	28.5
1584.67	24.5
1585.71	27.5
1586.75	25.5
1587.8	27
1588.84	26.5
1589.89	25.5
1590.93	29.5
1591.97	27
1593.02	29.5
1594.06	29
1595.1	29
1596.14	29
1597.19	25.5
1598.23	23
1599.27	24
1600.31	29
1601.35	24.5
1602.4	28
1603.44	30
1604.48	27
1605.52	30.5
1606.56	26
1607.6	28.5
1608.64	27.5
1609.68	29
1610.72	26
1611.76	28
1612.8	26
1613.84	24.5
1614.88	29.5
1615.92	26.5
1616.96	26
1618	26
1619.04	27
1620.08	28
1621.12	23
1622.16	27
1623.19	25.5
1624.23	22
1625.27	26.5
1626.31	24.5
1627.35	27
1628.38	22.5
1629.42	31.5
1630.46	24
1631.5	30
1632.53	29
1633.57	24
1634.61	24.5
1635.64	22
1636.68	28
1637.71	27
1638.75	29.5
1639.79	28.5
1640.82	25
1641.86	28
1642.89	25
1643.93	24
1644.96	25.5
1646	31
1647.03	27
1648.07	26.5
1649.1	29
1650.14	26
1651.17	24.5
1652.2	29
1653.24	25.5
1654.27	29.5
1655.3	24.5
1656.34	26
1657.37	23
1658.4	28
1659.44	29
1660.47	26.5
1661.5	24.5
1662.53	28.5
1663.57	28.5
1664.6	28
1665.63	26
1666.66	28
1667.69	29
1668.72	26
1669.75	26
1670.79	25
1671.82	29
1672.85	24.5
1673.88	26
1674.91	31
1675.94	30
1676.97	27.5
1678	25.5
1679.03	27
1680.06	26.5
1681.09	22
1682.11	27.5
1683.14	22.5
1684.17	29
1685.2	28
1686.23	25.5
1687.26	24
1688.29	26
1689.32	24
1690.34	24
1691.37	24
1692.4	27.5
1693.43	27.5
1694.45	29
1695.48	26
1696.51	27
1697.53	28.5
1698.56	26
1699.59	26
1700.61	28
1701.64	23.5
1702.66	22
1703.69	25
1704.72	26.5
1705.74	24.5
1706.77	26
1707.79	23
1708.82	30
1709.84	26
1710.87	27
1711.89	25
1712.92	26.5
1713.94	25
1714.96	26.5
1715.99	24
1717.01	23.5
1718.04	27
1719.06	24
1720.08	25.5
1721.11	27.5
1722.13	29
1723.15	24.5
1724.17	25.5
1725.2	29.5
1726.22	27
1727.24	27
1728.26	28
1729.28	29
1730.31	30.5
1731.33	24.5
1732.35	28
1733.37	28.5
1734.39	22.5
1735.41	24
1736.43	23
1737.45	24.5
1738.47	28
1739.49	26
1740.51	23.5
1741.53	25.5
1742.55	28
1743.57	26.5
1744.59	30
1745.61	28.5
1746.63	23.5
1747.65	28.5
1748.67	26.5
1749.69	26
1750.71	29
1751.72	28
1752.74	27
1753.76	23
1754.78	30
1755.8	28
1756.81	24
1757.83	25
1758.85	24.5
1759.86	25.5
1760.88	26.5
1761.9	26.5
1762.91	24.5
1763.93	27.5
1764.95	25
1765.96	25
1766.98	27.5
1768	26
1769.01	24.5
1770.03	28
1771.04	26.5
1772.06	28.5
1773.07	27
1774.09	26
1775.1	26.5
1776.12	25
1777.13	25
1778.14	27.5
1779.16	25
1780.17	25.5
1781.19	25.5
1782.2	28
1783.21	25
1784.23	26
1785.24	30.5
1786.25	25.5
1787.27	25
1788.28	27
1789.29	26
1790.3	25
1791.32	25
1792.33	25
1793.34	31.5
1794.35	29
1795.36	23.5
1796.37	25.5
1797.38	26.5
1798.4	24.5
1799.41	23
1800.42	28
1801.43	26.5
1802.44	25
1803.45	27.5
1804.46	22
1805.47	24.5
1806.48	29
1807.49	26.5
1808.5	25
1809.51	21
1810.52	29
1811.53	28.5
1812.53	24.5
1813.54	26.5
1814.55	26.5
1815.56	26.5
1816.57	27.5
1817.58	26
1818.58	24
1819.59	24.5
1820.6	28
1821.61	29
1822.61	25.5
1823.62	23.5
1824.63	25.5
1825.64	25.5
1826.64	24
1827.65	26.5
1828.66	22.5
1829.66	25.5
1830.67	23
1831.67	24
1832.68	26
1833.68	23.5
1834.69	22
1835.7	27.5
1836.7	26
1837.71	26.5
1838.71	24.5
1839.71	24.5
1840.72	24
1841.72	29
1842.73	24.5
1843.73	25
1844.74	25.5
1845.74	25
1846.74	25
1847.75	22
1848.75	24
1849.75	24
1850.76	24.5
1851.76	24.5
1852.76	24.5
1853.76	27.5
1854.77	28
1855.77	22.5
1856.77	23.5
1857.77	27
1858.77	24
1859.78	26
1860.78	25.5
1861.78	22
1862.78	27
1863.78	20
1864.78	27
1865.78	24
1866.78	25.5
1867.78	22.5
1868.78	25
1869.78	29
1870.78	26.5
1871.78	28
1872.78	25.5
1873.78	26
1874.78	25
1875.78	29.5
1876.78	26
1877.78	22.5
1878.78	23.5
1879.77	24.5
1880.77	26.5
1881.77	26
1882.77	28.5
1883.77	28
1884.76	23
1885.76	26.5
1886.76	24
1887.76	27
1888.75	23.5
1889.75	24.5
1890.75	25
1891.74	27
1892.74	25.5
1893.74	28
1894.73	24
1895.73	26
1896.72	26.5
1897.72	28
1898.72	24
1899.71	24
1900.71	20.5
1901.7	28.5
1902.7	20.5
1903.69	25.5
1904.69	23.5
1905.68	25.5
1906.67	26.5
1907.67	28
1908.66	32
1909.66	26
1910.65	27.5
1911.64	24.5
1912.64	27
1913.63	24.5
1914.62	24
1915.62	23.5
1916.61	24.5
1917.6	23
1918.59	23
1919.59	27
1920.58	25
1921.57	23.5
1922.56	22
1923.55	23
1924.55	25
1925.54	25
1926.53	27
1927.52	29
1928.51	27
1929.5	23.5
1930.49	24
1931.48	19
1932.47	22.5
1933.46	31
1934.45	27.5
1935.44	24.5
1936.43	29
1937.42	25
1938.41	26.5
1939.4	23
1940.39	27.5
1941.38	21
1942.37	26.5
1943.36	20.5
1944.34	24.5
1945.33	21
1946.32	25.5
1947.31	20
1948.3	23
1949.28	26
1950.27	27
1951.26	28
1952.25	22.5
1953.23	29
1954.22	24.5
1955.21	24
1956.2	22
1957.18	26.5
1958.17	26
1959.15	20.5
1960.14	26
1961.13	25
1962.11	22.5
1963.1	22.5
1964.08	25.5
1965.07	22.5
1966.05	28.5
1967.04	25
1968.02	25.5
1969.01	28
1969.99	23
1970.98	23.5
1971.96	28
1972.94	24.5
1973.93	26.5
1974.91	24.5
1975.9	24
1976.88	23.5
1977.86	24
1978.85	28
1979.83	30
1980.81	27.5
1981.8	22.5
1982.78	26
1983.76	26.5
1984.74	24
1985.72	22
1986.71	25
1987.69	24
1988.67	25
1989.65	27.5
1990.63	24
1991.61	25.5
1992.6	26
1993.58	23
1994.56	26.5
1995.54	22
1996.52	28.5
1997.5	27
1998.48	24
1999.46	22
2000.44	20
2001.42	23
2002.4	20.5
2003.38	24.5
2004.36	21
2005.34	25.5
2006.32	22.5
2007.29	26
2008.27	26.5
2009.25	21.5
2010.23	24
2011.21	22
2012.19	19
2013.16	20.5
2014.14	26.5
2015.12	28
2016.1	22.5
2017.07	25
2018.05	26
2019.03	24
2020	23
2020.98	24.5
2021.96	26
2022.93	26.5
2023.91	27
2024.89	23
2025.86	26
2026.84	24.5
2027.81	25
2028.79	24
2029.77	27
2030.74	25
2031.72	23.5
2032.69	22
2033.67	25
2034.64	25
2035.61	24
2036.59	31.5
2037.56	23
2038.54	23.5
2039.51	22.5
2040.48	24
2041.46	22.5
2042.43	25
2043.41	25
2044.38	26
2045.35	24
2046.32	25.5
2047.3	23.5
2048.27	21
2049.24	20.5
2050.21	21.5
2051.19	23.5
2052.16	22
2053.13	25
2054.1	23
2055.07	20.5
2056.04	23.5
2057.02	24
2057.99	26
2058.96	24
2059.93	21
2060.9	23
2061.87	22.5
2062.84	22.5
2063.81	25
2064.78	23.5
2065.75	22
2066.72	26.5
2067.69	24.5
2068.66	28.5
2069.63	25
2070.6	25
2071.57	27
2072.53	24
2073.5	24
2074.47	26
2075.44	25
2076.41	25.5
2077.38	21.5
2078.34	24.5
2079.31	22
2080.28	25
2081.25	23.5
2082.21	19.5
2083.18	23.5
2084.15	22.5
2085.12	24
2086.08	25.5
2087.05	22.5
2088.02	25
2088.98	24
2089.95	26
2090.91	25.5
2091.88	21.5
2092.85	29.5
2093.81	23
2094.78	22
2095.74	22
2096.71	24.5
2097.67	20
2098.64	21.5
2099.6	24
2100.57	25.5
2101.53	26.5
2102.5	23
2103.46	23
2104.42	22.5
2105.39	23.5
2106.35	27
2107.31	24.5
2108.28	19
2109.24	25.5
2110.2	24.5
2111.17	24
2112.13	21.5
2113.09	24
2114.06	23
2115.02	19
2115.98	26
2116.94	26
2117.9	22
2118.86	24
2119.83	24
2120.79	20
2121.75	26
2122.71	26.5
2123.67	23
2124.63	23.5
2125.59	23
2126.55	23
2127.51	26
2128.48	24
2129.43	25.5
2130.4	21.5
2131.35	24
2132.31	25.5
2133.27	23
2134.23	20.5
2135.19	23.5
2136.15	23
2137.11	22
2138.07	26
2139.03	19
2139.99	24.5
2140.95	20.5
2141.9	24.5
2142.86	24.9849
2143.82	23.9328
2144.78	25.4879
2145.74	24.9707
2146.69	22.944
2147.65	22.9155
2148.61	24.7992
2149.56	21.9323
2150.52	20.2868
2151.48	20.1608
2152.44	24.1174
2153.39	22.401
2154.35	26.7921
2155.3	22.4001
2156.26	23.4084
2157.22	24.6785
2158.17	21.5907
2159.13	26.0545
2160.08	23.5243
2161.04	25.9412
2161.99	25.7217
2162.95	23.7306
2163.9	25.7776
2164.86	21.4701
2165.81	22.1786
2166.77	21.1817
2167.72	22.4457
2168.68	22.8217
2169.63	22.2233
2170.58	26.2726
2171.54	25.1142
2172.49	21.8507
2173.44	22.8155
2174.4	22.8252
2175.35	23.0575
2176.3	20.5411
2177.26	21.5182
2178.21	23.8686
2179.16	25.5934
2180.11	24.9339
2181.07	24.4193
2182.02	27.0512
2182.97	24.5686
2183.92	22.2717
2184.88	21.7663
2185.83	22.7249
2186.78	24.1456
2187.73	23.0694
2188.68	22.6779
2189.63	21.5135
2190.58	21.2478
2191.53	24.6601
2192.48	24.4606
2193.43	23.9328
2194.38	23.6637
2195.33	23.0268
2196.28	24.0659
2197.23	22.2209
2198.18	22.6561
2199.13	23.706
2200.08	22.8585
2201.03	21.0108
2201.98	23.6518
2202.93	22.7308
2203.88	20.3198
2204.83	21.0461
2205.78	22.6778
2206.72	19.7615
2207.67	23.3922
2208.62	24.278
2209.57	22.4581
2210.52	21.6519
2211.46	23.4702
2212.41	22.0245
2213.36	22.2767
2214.31	20.3832
2215.25	23.3298
2216.2	23.9332
2217.15	24.2152
2218.09	21.5404
2219.04	21.5868
2219.99	21
2220.93	22.974
2221.88	21.5991
2222.83	20.2442
2223.77	21.89
2224.72	22.8632
2225.66	22.936
2226.61	23.0934
2227.55	20.2477
2228.5	23.8049
2229.44	22.3574
2230.39	23.1223
2231.33	22.6951
2232.28	23.1683
2233.22	23
2234.17	22.5566
2235.11	22.1709
2236.05	23.1947
2237	25.0897
2237.94	23.0376
2238.88	22.5073
2239.83	23.6721
2240.04	24
2240.98	24
2241.93	19
2242.88	24.5
2243.83	19
2244.78	23
2245.72	27.5
2246.67	23.5
2247.62	23.5
2248.56	23.5
2249.51	26.5
2250.46	20.5
2251.4	24.5
2252.35	24
2253.3	24.5
2254.24	17
2255.19	24.5
2256.14	23
2257.08	20.5
2258.03	25
2258.97	23.5
2259.92	23
2260.86	22.5
2261.81	25
2262.75	23.5
2263.7	21.5
2264.64	22
2265.59	20
2266.53	27
2267.48	24
2268.42	24.5
2269.36	25
2270.31	23
2271.25	25.5
2272.19	22.5
2273.14	28
2274.08	21.5
2275.02	23
2275.97	22
2276.91	25.5
2277.85	24.5
2278.8	21.5
2279.74	19
2280.68	23
2281.62	21.5
2282.56	22
2283.51	23.5
2284.45	20.5
2285.39	23.5
2286.33	25
2287.27	21.5
2288.21	25.5
2289.15	21
2290.09	24.5
2291.04	21
2291.98	23
2292.92	21
2293.86	25.5
2294.8	23
2295.74	24
2296.68	22
2297.62	25.5
2298.56	22.5
2299.5	23
2300.44	22.5
2301.37	21
2302.31	24
2303.25	22.5
2304.19	22.5
2305.13	25
2306.07	25
2307.01	25
2307.94	27
2308.88	19
2309.82	24
2310.76	23
2311.7	23.5
2312.63	23
2313.57	21.5
2314.51	24
2315.44	23.5
2316.38	22
2317.32	21
2318.26	21.5
2319.19	23
2320.13	23.5
2321.06	26
2322	28
2322.94	26
2323.87	23
2324.81	25
2325.74	22.5
2326.68	23
2327.61	21
2328.55	23
2329.48	20.5
2330.42	22
2331.35	21.5
2332.29	23.5
2333.22	24.5
2334.16	23.5
2335.09	24.5
2336.02	23.5
2336.96	21
2337.89	23.5
2338.83	27.5
2339.76	22.5
2340.69	23
2341.63	23.5
2342.56	24
2343.49	24
2344.42	21.5
2345.36	21.5
2346.29	24.5
2347.22	22
2348.15	21.5
2349.09	22
2350.02	23
2350.95	25
2351.88	22.5
2352.81	23.5
2353.74	25
2354.68	27
2355.61	22
2356.54	24
2357.47	21
2358.4	20
2359.33	21.5
2360.26	23.5
2361.19	26.5
2362.12	27
2363.05	26.5
2363.98	27.5
2364.91	26
2365.84	27.5
2366.77	28
2367.7	25.5
2368.63	24.5
2369.56	20.5
2370.49	24
2371.41	21.5
2372.34	20.5
2373.27	22.5
2374.2	22
2375.13	24
2376.06	23
2376.98	24.5
2377.91	23
2378.84	25.5
2379.77	24
2380.69	25
2381.62	21
2382.55	21
2383.47	21
2384.4	21.5
2385.33	25.5
2386.25	24
2387.18	21
2388.11	21.5
2389.03	25
2389.96	26
2390.89	22.5
2391.81	23
2392.74	22
2393.66	22
2394.59	23.5
2395.51	20.5
2396.44	27
2397.36	25
2398.29	20
2399.21	26
2400.14	25
2401.06	23.5
2401.99	23.5
2402.91	24
2403.83	23.5
2404.76	26
2405.68	20.5
2406.6	24
2407.53	24.5
2408.45	22
2409.37	24
2410.3	22.5
2411.22	24
2412.14	22.5
2413.06	21.5
2413.99	23
2414.91	24
2415.83	24
2416.75	24.5
2417.68	21
2418.6	25.5
2419.52	24
2420.44	28
2421.36	26.5
2422.28	24
2423.2	24
2424.12	24
2425.05	19
2425.97	23.5
2426.89	24
2427.81	24.5
2428.73	23.5
2429.65	22
2430.57	26.5
2431.49	23
2432.41	18
2433.33	26
2434.25	24
2435.17	21
2436.08	27
2437	25
2437.92	23.5
2438.84	25
2439.76	23
2440.68	24
2441.6	21.5
2442.51	22
2443.43	24.5
2444.35	23.5
2445.27	23
2446.19	23.5
2447.1	25
2448.02	25.5
2448.94	22
2449.85	20
2450.77	25.5
2451.69	26
2452.61	20
2453.52	22.5
2454.44	23
2455.35	24
2456.27	26
2457.19	24
2458.1	24.5
2459.02	23
2459.94	24
2460.85	24.5
2461.77	23
2462.68	27
2463.6	23.5
2464.51	25.5
2465.43	21
2466.34	25.5
2467.25	26.5
2468.17	28
2469.08	22
2470	23
2470.91	26.5
2471.83	21
2472.74	19.5
2473.65	23
2474.57	17
2475.48	24.5
2476.39	26
2477.31	22.5
2478.22	24
2479.13	24.5
2480.04	22
2480.96	26
2481.87	21.5
2482.78	26
2483.69	24.5
2484.6	27
2485.52	23.5
2486.43	20.5
2487.34	26
2488.25	22.5
2489.16	22.5
2490.07	26
2490.99	24.5
2491.9	24
2492.81	21
2493.72	26
2494.63	24.5
2495.54	22
2496.45	19
2497.36	26
2498.27	23
2499.18	26
2500.09	22
2501	22.5
2501.91	20.5
2502.82	23
2503.73	24
2504.63	25
2505.54	25.5
2506.45	24
2507.36	23.5
2508.27	22
2509.18	23
2510.09	27.5
2510.99	24
2511.9	26
2512.81	26.5
2513.72	22.5
2514.62	23.5
2515.53	26
2516.44	23.5
2517.35	25.5
2518.25	24.5
2519.16	24.5
2520.07	21.5
2520.97	24
2521.88	25
2522.79	28
2523.69	24
2524.6	24.5
2525.51	19.5
2526.41	23
2527.32	25
2528.22	25
2529.13	22.5
2530.03	24
2530.94	26.5
2531.84	26
2532.75	26
2533.65	26
2534.56	23.5
2535.46	24.5
2536.37	25
2537.27	25
2538.17	25.5
2539.08	23
2539.98	25.5
2540.89	24
2541.79	25
2542.69	23
2543.6	23
2544.5	23
2545.4	27.5
2546.31	24
2547.21	25
2548.11	23.5
2549.01	21
2549.92	27
2550.82	25.5
2551.72	27.5
2552.62	24
2553.52	23.5
2554.42	26.5
2555.33	27.5
2556.23	23.5
2557.13	24.5
2558.03	21
2558.93	23
2559.83	21.5
2560.73	24.5
2561.63	26
2562.53	26.5
2563.43	26
2564.33	23.5
2565.24	27.5
2566.13	25.5
2567.04	23.5
2567.93	25
2568.83	21.5
2569.73	23
2570.63	26
2571.53	24
2572.43	25
2573.33	27.5
2574.23	25
2575.13	25.5
2576.03	23.5
2576.92	20
2577.82	25
2578.72	24.5
2579.62	24.5
2580.52	26.5
2581.41	22
2582.31	22.5
2583.21	21.5
2584.11	25
2585	24.5
2585.9	21
2586.8	24
2587.69	20.5
2588.59	22
2589.49	22.5
2590.38	23.5
2591.28	27
2592.18	23
2593.07	25
2593.97	24.5
2594.86	26.5
2595.76	23.5
2596.66	25
2597.55	26
2598.45	26.5
2599.34	21.5
2600.24	25
2601.13	17.5
2602.03	27
2602.92	23.5
2603.81	22
2604.71	22
2605.6	25
2606.5	24
2607.39	29
2608.28	22.5
2609.18	23
2610.07	24.5
2610.97	26
2611.86	23
2612.75	19
2613.64	25
2614.54	28
2615.43	25.5
2616.32	25.5
2617.22	26.5
2618.11	25
2619	20
2619.89	24
2620.78	26.5
2621.68	25
2622.57	27.5
2623.46	26.5
2624.35	22
2625.24	22
2626.13	24
2627.02	21.5
2627.91	23.5
2628.81	26
2629.7	23
2630.59	25
2631.48	25.5
2632.37	26
2633.26	23
2634.15	24
2635.04	24
2635.93	23.5
2636.82	26.5
2637.71	24.5
2638.59	27
2639.48	27.5
2640.37	23
2641.26	23.5
2642.15	23
2643.04	25.5
2643.93	23
2644.82	25.5
2645.71	21.5
2646.59	25
2647.48	22.5
2648.37	23
2649.26	25.5
2650.15	25
2651.03	22
2651.92	20
2652.81	25
2653.69	24.5
2654.58	24
2655.47	23.5
2656.35	26
2657.24	26
2658.13	23
2659.01	28.5
2659.9	21.5
2660.79	28.5
2661.67	22
2662.56	24.5
2663.44	22
2664.33	24
2665.22	21
2666.1	21
2666.99	22
2667.87	25
2668.76	22
2669.64	27
2670.52	23
2671.41	22
2672.29	22
2673.18	23
2674.06	23
2674.95	27
2675.83	24.5
2676.71	24
2677.6	25
2678.48	27.5
2679.36	23
2680.25	27.5
2681.13	25.5
2682.01	27
2682.9	25
2683.78	20
2684.66	21.5
2685.55	23
2686.43	23
2687.31	22.5
2688.19	27
2689.07	23.5
2689.96	25
2690.84	23
2691.72	23.5
2692.6	23
2693.48	24
2694.36	23.5
2695.24	21
2696.12	23.5
2697	21.5
2697.89	27
2698.77	27
2699.65	24
2700.53	22.5
2701.41	23.5
2702.29	24
2703.17	22
2704.05	25
2704.93	26
2705.81	23.5
2706.69	19.5
2707.57	26.5
2708.44	22.5
2709.32	24
2710.2	27
2711.08	23
2711.96	20
2712.84	24.5
2713.72	23
2714.59	22
2715.47	24.5
2716.35	28.5
2717.23	26
2718.11	23
2718.98	25.5
2719.86	24.5
2720.74	22.5
2721.62	26.5
2722.49	23
2723.37	27.5
2724.25	23.5
2725.12	24.5
2726	23.5
2726.88	25.5
2727.75	28
2728.63	21
2729.51	29
2730.38	24
2731.26	23
2732.13	25
2733.01	27
2733.88	24
2734.76	24
2735.63	24
2736.51	23
2737.38	23.5
2738.26	24
2739.13	23
2740.01	27
2740.88	23.5
2741.76	25.5
2742.63	22
2743.5	23
2744.38	23
2745.25	23
2746.13	23
2747	26.5
2747.87	24.5
2748.75	25.5
2749.62	25
2750.49	22
2751.36	25.5
2752.24	21.5
2753.11	28
2753.98	25.5
2754.86	26.5
2755.73	23
2756.6	28
2757.47	22
2758.34	22.5
2759.22	25.5
2760.09	23
2760.96	25
2761.83	23
2762.7	26
2763.57	22
2764.44	25.5
2765.31	27.5
2766.18	28.5
2767.06	24
2767.93	25.5
2768.8	22.5
2769.67	27
2770.54	22
2771.41	24
2772.28	23.5
2773.15	29
2774.02	24
2774.89	25
2775.75	22.5
2776.62	25
2777.49	23
2778.36	28
2779.23	21.5
2780.1	22
2780.97	25
2781.84	29
2782.71	29.5
2783.57	27
2784.44	20.5
2785.31	23.5
2786.18	26
2787.04	22.5
2787.91	24
2788.78	21
2789.65	25
2790.51	19
2791.38	26.5
2792.25	22
2793.12	23.5
2793.98	25
2794.85	24.5
2795.72	24.5
2796.58	24.5
2797.45	23.5
2798.31	22
2799.18	31
2800.05	28
2800.91	29.5
2801.78	29.5
2802.64	25.5
2803.51	24
2804.37	26
2805.24	26
2806.1	29
2806.97	27.5
2807.83	32.5
2808.7	27
2809.56	27
2810.43	22
2811.29	30.5
2812.15	26
2813.02	26
2813.88	24.5
2814.75	27
2815.61	25.5
2816.47	23
2817.34	25
2818.2	25
2819.06	29
2819.92	25
2820.79	25.5
2821.65	27
2822.51	26
2823.37	25
2824.24	25.5
2825.1	25
2825.96	25.5
2826.82	27
2827.69	28
2828.55	19.5
2829.41	27
2830.27	27.5
2831.13	23.5
2831.99	23
2832.85	26
2833.71	24
2834.58	23.5
2835.44	24.5
2836.3	23.5
2837.16	28.5
2838.02	24
2838.88	23.5
2839.74	24.5
2840.6	26
2841.46	26.5
2842.32	24
2843.18	30
2844.04	26
2844.9	26
2845.75	25.5
2846.61	23.5
2847.47	26
2848.33	23.5
2849.19	23.5
2850.05	23.5
2850.91	26.5
2851.77	25
2852.62	27
2853.48	26
2854.34	27
2855.2	24.5
2856.06	24
2856.91	24.5
2857.77	25
2858.63	25
2859.48	25
2860.34	24.5
2861.2	23.5
2862.06	27
2862.91	28
2863.77	26.5
2864.63	26.5
2865.48	26.5
2866.34	25.5
2867.19	28
2868.05	29
2868.91	29.5
2869.76	30
2870.62	27.5
2871.47	24
2872.33	28.5
2873.18	27
2874.04	29
2874.89	26
2875.75	25
2876.6	26
2877.46	30
2878.31	31
2879.17	32
2880.02	31
2880.88	29
2881.73	32
2882.58	35
2883.44	32
2884.29	29.5
2885.14	32
2886	33
2886.85	33.5
2887.7	31
2888.56	33.5
2889.41	39
2890.26	34.5
2891.12	34.5
2891.97	43
2892.82	40.5
2893.67	41.5
2894.52	45.5
2895.38	50
2896.23	46.5
2897.08	47
2897.93	50
2898.78	47
2899.64	52.5
2900.49	55
2901.34	65.5
2902.19	63
2903.04	61
2903.89	63
2904.74	65
2905.59	69.5
2906.44	60.5
2907.29	68.5
2908.14	65.5
2908.99	55
2909.84	55
2910.69	61.5
2911.54	61.5
2912.39	57
2913.24	54.5
2914.09	45.5
2914.94	49
2915.79	44.5
2916.64	43
2917.49	36
2918.34	42
2919.18	37
2920.03	34.5
2920.88	31.5
2921.73	31.5
2922.58	33
2923.42	31
2924.27	30.5
2925.12	28.5
2925.97	31.5
2926.82	31.5
2927.66	27.5
2928.51	25.5
2929.36	27
2930.2	28.5
2931.05	25.5
2931.9	25
2932.74	30
2933.59	25.5
2934.44	28.5
2935.28	29
2936.13	24
2936.98	30
2937.82	28
2938.67	25.5
2939.51	29.5
2940.36	30
2941.2	27
2942.05	26.5
2942.9	25
2943.74	29.5
2944.58	26.5
2945.43	26.5
2946.27	23
2947.12	29
2947.96	33
2948.81	31
2949.65	28
2950.5	30
2951.34	32
2952.18	30.5
2953.03	31
2953.87	33.5
2954.71	32.5
2955.56	32.5
2956.4	28
2957.24	33.5
2958.09	32
2958.93	36
2959.77	35.5
2960.62	36.5
2961.46	40
2962.3	37.5
2963.14	43.5
2963.98	40.5
2964.83	44
2965.67	42
2966.51	42
2967.35	42.5
2968.19	38.5
2969.04	39.5
2969.88	43
2970.72	41
2971.56	38.9976
2972.4	33.4468
2973.24	34.9494
2974.08	36.8842
2974.92	31.0386
2975.76	31.5858
2976.6	29.0066
2977.44	29.941
2978.28	32.155
2979.12	29.9959
2979.96	30.6323
2980.8	28.7209
2981.64	27.7509
2982.48	24.737
2983.32	24.7831
2984.16	27.4812
2985	25.9417
2985.84	25.415
2986.68	25.5942
2987.52	26.5763
2988.35	26.7887
2989.19	22.8371
2990.03	29.8457
2990.87	25.6451
2991.71	26.9568
2992.55	25.0631
2993.38	26.8172
2994.22	24.8155
2995.06	22.0132
2995.9	28.1228
2996.73	25.7065
2997.57	25.9805
2998.41	24.3422
2999.25	22.7925
3000.08	26.3665
3000.92	21.9174
3001.76	24.3114
3002.59	22.7435
3003.43	22.9827
3004.27	23.5782
3005.1	25.3774
3005.94	22.9219
3006.78	24.0458
3007.61	22.927
3008.45	24.6517
3009.28	25
3010.12	22.125
3010.95	23.1584
3011.79	21.7646
3012.62	21.6228
3013.46	22.1799
3014.29	19.6837
3015.13	20.7061
3015.96	21.1256
3016.8	23.5379
3017.63	23.5454
3018.47	23.8448
3019.3	26.3692
3020.14	23.8516
3020.97	23.2825
3021.8	23.0933
3022.64	22.3387
3023.47	22.8319
3024.3	23.256
3025.14	23.1325
3025.97	22.8743
3026.8	21.9771
3027.64	23.8257
3028.47	23.5095
3029.3	22.5308
3030.14	24.4109
3030.97	23.0491
3031.8	21.7814
3032.63	22.9574
3033.46	23.8088
3034.3	22.8606
3035.13	22.5
3035.96	23.1299
3036.79	23.8409
3037.62	21.3679
3038.46	23.1178
3039.29	21.7547
3040.12	22.7985
3040.95	23.471
3041.78	22.7016
3042.61	21.1301
3043.44	23.154
3044.27	22.1439
3045.1	21.0703
3045.93	22.6947
3046.76	22.2536
3047.59	20.8575
3048.42	19.5207
3049.25	22.3959
3050.08	22.5153
3050.91	22.6639
3051.74	19.1935
3052.57	19.7632
3053.4	22.3169
3054.23	21.7051
3055.06	25.4729
3055.89	22.6019
3056.72	21.4907
3057.32	24
3058.15	18
3058.98	22.5
3059.82	20.5
3060.65	23
3061.48	26.5
3062.31	23
3063.15	19
3063.98	24
3064.81	25
3065.64	23
3066.48	22.5
3067.31	18
3068.14	25
3068.97	24.5
3069.8	23
3070.63	24
3071.47	19
3072.3	20.5
3073.13	21.5
3073.96	19
3074.79	20.5
3075.62	20
3076.45	19.5
3077.28	24.5
3078.11	22.5
3078.94	22.5
3079.77	27
3080.6	23
3081.43	21.5
3082.26	25
3083.09	19
3083.92	24.5
3084.75	23.5
3085.58	24
3086.41	24
3087.24	22.5
3088.07	22
3088.9	25
3089.73	22.5
3090.55	24
3091.38	24
3092.21	24
3093.04	21.5
3093.87	25
3094.7	24
3095.52	23
3096.35	25
3097.18	22
3098.01	19
3098.84	19
3099.66	24
3100.49	19
3101.32	24.5
3102.14	22.5
3102.97	23
3103.8	23
3104.62	19.5
3105.45	26.5
3106.28	25
3107.1	20.5
3107.93	23
3108.76	22.5
3109.58	22
3110.41	24
3111.23	21.5
3112.06	18.5
3112.89	23.5
3113.71	27.5
3114.54	25.5
3115.36	21
3116.19	22.5
3117.01	25
3117.84	21
3118.66	20.5
3119.49	21.5
3120.31	23
3121.13	21.5
3121.96	20
3122.78	25
3123.61	23.5
3124.43	22
3125.25	22
3126.08	22
3126.9	22.5
3127.73	23
3128.55	24
3129.37	25
3130.19	23.5
3131.02	25.5
3131.84	26
3132.66	22
3133.49	24.5
3134.31	22.5
3135.13	23.5
3135.95	25
3136.78	24
3137.6	23
3138.42	23
3139.24	23
3140.06	25
3140.88	22
3141.71	20.5
3142.53	23
3143.35	27.5
3144.17	29
3144.99	21.5
3145.81	25.5
3146.63	25.5
3147.45	22.5
3148.27	25.5
3149.09	21
3149.91	21
3150.73	19.5
3151.56	24
3152.37	26
3153.2	21
3154.01	23
3154.83	25
3155.65	24.5
3156.47	21
3157.29	23
3158.11	24
3158.93	23.5
3159.75	23.5
3160.57	25
3161.39	24.5
3162.21	22.5
3163.02	26.5
3163.84	23.5
3164.66	24.5
3165.48	22
3166.3	23
3167.11	26.5
3167.93	26.5
3168.75	23
3169.57	24
3170.39	19
3171.2	21.5
3172.02	24
3172.84	25.5
3173.65	23.5
3174.47	22.5
3175.29	24.5
3176.1	23
3176.92	23
3177.74	22.5
3178.55	22.5
3179.37	24
3180.19	23.5
3181	25
3181.82	20.5
3182.63	22
3183.45	25
3184.27	24.5
3185.08	24.5
3185.9	22.5
3186.71	25
3187.53	23
3188.34	22
3189.16	25
3189.97	21
3190.79	21.5
3191.6	24
3192.41	20
3193.23	23
3194.04	24
3194.86	22.5
3195.67	23.5
3196.48	25.5
3197.3	24
3198.11	24.5
3198.93	21.5
3199.74	24
3200.55	26
3201.36	23.5
3202.18	25
3202.99	25
3203.8	20
3204.62	24
3205.43	23
3206.24	24
3207.05	21.5
3207.87	20
3208.68	27.5
3209.49	24.5
3210.3	25
3211.11	23.5
3211.93	23.5
3212.74	24
3213.55	26
3214.36	22.5
3215.17	22.5
3215.98	26
3216.79	24
3217.6	26
3218.41	23
3219.22	24
3220.03	26.5
3220.85	23
3221.66	22
3222.47	21
3223.28	27.5
3224.09	20.5
3224.9	22.5
3225.71	22
3226.52	25.5
3227.33	26
3228.13	25.5
3228.94	25.5
3229.75	25.5
3230.56	29
3231.37	22
3232.18	23.5
3232.99	25
3233.8	28
3234.61	23
3235.41	23.5
3236.22	21
3237.03	24
3237.84	17
3238.65	22.5
3239.45	24.5
3240.26	22.5
3241.07	23
3241.88	21
3242.68	24
3243.49	22.5
3244.3	22
3245.1	24.5
3245.91	23
3246.72	25
3247.53	27
3248.33	22.5
3249.14	26
3249.95	21.5
3250.75	23
3251.56	25
3252.36	22.5
3253.17	24.5
3253.97	24.5
3254.78	24.5
3255.59	25.5
3256.39	22.5
3257.2	23
3258	25
3258.81	26.5
3259.61	27
3260.42	24
3261.22	26
3262.03	25
3262.83	21
3263.64	24
3264.44	25
3265.24	21.5
3266.05	22.5
3266.85	21.5
3267.66	22
3268.46	24
3269.26	25.5
3270.07	23.5
3270.87	24.5
3271.67	20
3272.48	23
3273.28	20.5
3274.08	21.5
3274.89	24
3275.69	25.5
3276.49	23.5
3277.29	20
3278.1	23
3278.9	23
3279.7	24
3280.5	25
3281.3	26
3282.11	24
3282.91	21
3283.71	23.5
3284.51	21
3285.31	23.5
3286.11	21
3286.91	26.5
3287.72	24
3288.52	29
3289.32	26.5
3290.12	22
3290.92	28
3291.72	24
3292.52	20.5
3293.32	25
3294.12	23
3294.92	24.5
3295.72	24.5
3296.52	26.5
3297.32	26
3298.12	22.5
3298.92	24.5
3299.72	22.5
3300.52	27.5
3301.32	25
3302.12	24.5
3302.92	20
3303.71	21
3304.51	19.5
3305.31	22.5
3306.11	23
3306.91	25.5
3307.71	22
3308.5	23.5
3309.3	19.5
3310.1	25
3310.9	26.5
3311.7	23
3312.49	24
3313.29	23
3314.09	25
3314.89	24.5
3315.68	20.5
3316.48	22.5
3317.28	22
3318.07	21
3318.87	29.5
3319.67	25
3320.46	25
3321.26	22.5
3322.06	24
3322.85	22.5
3323.65	22
3324.44	25
3325.24	24
3326.04	21
3326.83	22
3327.63	21
3328.42	23.5
3329.22	22
3330.01	22.5
3330.81	26.5
3331.6	27
3332.4	27
3333.19	24
3333.99	23.5
3334.78	25
3335.58	22.5
3336.37	21
3337.17	26
3337.96	18
3338.75	24.5
3339.55	21
3340.34	25
3341.13	24.5
3341.93	22.5
3342.72	23
3343.51	21
3344.31	24
3345.1	22.5
3345.89	26.5
3346.69	21
3347.48	22.5
3348.27	25
3349.06	26
3349.86	20.5
3350.65	25
3351.44	24
3352.23	24
3353.03	22.5
3353.82	22.5
3354.61	27.5
3355.4	23.5
3356.19	22
3356.98	24.5
3357.78	24
3358.57	22.5
3359.36	24
3360.15	20.5
3360.94	26
3361.73	21
3362.52	23.5
3363.31	22
3364.1	24.5
3364.89	18
3365.68	25
3366.47	24
3367.26	23.5
3368.05	26
3368.84	23.5
3369.63	23
3370.42	25
3371.21	26.5
3372	23
3372.79	26
3373.58	23
3374.37	24
3375.16	25.5
3375.95	25
3376.73	21
3377.52	21.5
3378.31	21.5
3379.1	22.5
3379.89	26.5
3380.68	24.5
3381.46	20.5
3382.25	26
3383.04	20.5
3383.83	23.5
3384.62	23
3385.4	22.5
3386.19	21
3386.98	20.5
3387.76	26
3388.55	20.5
3389.34	21
3390.13	26
3390.91	26.5
3391.7	22
3392.49	25.5
3393.27	25.5
3394.06	22
3394.84	24.5
3395.63	22
3396.42	22
3397.2	24
3397.99	26
3398.77	27
3399.56	22
3400.34	27
3401.13	24
3401.92	24.5
3402.7	22
3403.49	26.5
3404.27	24.5
3405.06	19.5
3405.84	24
3406.62	23.5
3407.41	24
3408.19	25
3408.98	22.5
3409.76	24
3410.55	23
3411.33	22
3412.11	21
3412.9	22.5
3413.68	23
3414.46	24.5
3415.25	22.5
3416.03	22.5
3416.81	23.5
3417.6	20.5
3418.38	26.5
3419.16	26
3419.95	22.5
3420.73	22
3421.51	18.5
3422.29	25
3423.08	18.5
3423.86	24
3424.64	24
3425.42	22.5
3426.2	22.5
3426.98	21
3427.77	21.5
3428.55	25.5
3429.33	23.5
3430.11	20
3430.89	21
3431.67	26.5
3432.45	27.5
3433.24	25
3434.02	21
3434.8	23.5
3435.58	23.5
3436.36	22
3437.14	23
3437.92	24.5
3438.7	22
3439.48	25.5
3440.26	26.5
3441.04	26
3441.82	22.5
3442.6	24.5
3443.38	24
3444.16	19
3444.94	25.5
3445.71	24.5
3446.49	27
3447.27	22
3448.05	22
3448.83	26.5
3449.61	25
3450.39	23
3451.17	23.5
3451.94	24
3452.72	24.5
3453.5	25.5
3454.28	24
3455.06	20
3455.83	22.5
3456.61	23.5
3457.39	23.5
3458.17	23
3458.94	22
3459.72	22
3460.5	23
3461.28	21.5
3462.05	24
3462.83	25
3463.61	24.5
3464.38	23
3465.16	24.5
3465.93	23.5
3466.71	21
3467.49	24.5
3468.26	26
3469.04	22.5
3469.82	23.5
3470.59	21.5
3471.37	21
3472.14	23.5
3472.92	24
3473.69	21.5
3474.47	24
3475.24	19.5
3476.02	22
3476.79	26.5
3477.57	20
3478.34	22.5
3479.12	30.5
3479.89	23
3480.67	21.5
3481.44	22.5
3482.21	25.5
3482.99	21
3483.76	24
3484.54	25.5
3485.31	24
3486.08	25
3486.86	28
3487.63	25.5
3488.4	22
3489.18	21.5
3489.95	23
3490.72	25.5
3491.5	27.5
3492.27	24
3493.04	23.5
3493.81	22
3494.59	22
3495.36	24
3496.13	23
3496.9	23
3497.67	23.5
3498.45	24
3499.22	25
3499.99	21.5
