#Acq. time (s)=	5
#Accumulations=	5
#Range (cm-¹)=	100...3500
#Windows=	4
#Autofocus=	Off
#AutoExposure=	Off
#Spike filter=	Multiple accum.
#Delay time (s)=	0
#Binning=	1
#Readout mode=	Signal
#DeNoise=	Off
#ICS correction=	Off
#Dark correction=	Off
#Inst. Process=	Off
#Instrument=	LabRAM HR Evol
#Detector=	Syncerity OE
#Objective=	x100_VIS
#Grating=	600 (500nm)
#ND Filter=	25%
#Laser=	633nm_Edge
#Hole=	100.021
#Range=	Visible
#Project=	verificaciones
#Sample=	a4
#Site=	lined
#Title=	bolusa4lined
#Remark=	
#Date=	09.01.2026 15:06
#Acquired=	09.01.2026 15:06:55
100.695	94.5
101.978	96.5
103.262	95
104.545	95.5
105.829	98
107.112	95
108.394	94
109.676	93.5
110.958	91
112.24	88
113.522	100.5
114.803	98.5
116.084	97.5
117.365	95
118.646	103
119.927	97
121.207	106
122.487	109.5
123.767	107
125.047	116.5
126.326	113.5
127.606	117
128.885	117.5
130.164	125.5
131.442	123
132.721	127
133.999	126
135.277	127
136.555	137.5
137.831	134.5
139.109	132.5
140.386	143.5
141.663	143.5
142.94	151
144.216	147
145.493	162
146.769	152.5
148.043	157
149.319	168.5
150.595	177.5
151.87	173
153.145	180.5
154.42	179.5
155.693	184.5
156.968	185
158.242	191.5
159.516	188.5
160.79	181
162.062	196.5
163.336	183.5
164.609	177.5
165.882	168
167.153	174.5
168.426	158
169.699	171
170.971	167
172.241	170
173.513	172
174.785	174.5
176.055	158
177.326	172
178.597	179.5
179.866	171
181.137	170.5
182.407	182
183.676	181.5
184.946	179.5
186.216	185
187.484	182
188.753	188
190.022	180
191.29	184
192.558	173.5
193.825	185
195.094	180.5
196.36	169.5
197.628	174.5
198.896	166
200.162	166.5
201.429	159
202.695	156
203.962	155
205.227	146
206.493	143
207.758	149
209.024	135.5
210.289	131
211.554	138.5
212.818	132
214.083	132
215.347	122
216.612	122
217.875	125
219.138	121.5
220.402	120
221.665	118
222.928	113
224.19	112
225.454	107.5
226.715	108
227.977	111.5
229.24	108.5
230.501	108
231.762	101
233.024	104.5
234.284	101
235.546	99.5
236.806	106
238.066	96
239.327	95.5
240.587	98
241.846	94
243.105	95
244.365	93.5
245.624	94
246.882	87.5
248.142	94.5
249.4	99.5
250.658	91
251.916	95.5
253.174	95
254.432	98
255.689	94.5
256.945	92
258.202	88.5
259.46	90
260.716	85.5
261.972	88.5
263.228	91
264.483	89
265.74	93
266.996	81
268.251	87
269.505	86
270.76	72
272.014	85.5
273.268	78
274.522	81
275.778	80.5
277.031	80
278.285	78
279.538	81
280.791	86
282.043	78
283.296	81.5
284.548	75.5
285.8	80.5
287.052	79
288.304	75
289.556	87.5
290.807	84.5
292.058	80
293.309	84
294.56	86.5
295.81	77
297.061	83.5
298.311	80
299.561	78
300.81	80
302.06	86
303.309	79.5
304.558	79.5
305.807	78
307.056	86
308.305	77
309.551	79.5
310.8	73.5
312.047	75
313.295	82
314.543	79
315.79	83.5
317.037	79
318.284	83
319.529	77.5
320.776	79.5
322.022	78.5
323.268	80
324.514	85.5
325.758	76
327.004	73.5
328.249	82
329.494	78
330.739	78
331.982	81
333.227	75.5
334.471	79.5
335.715	77
336.958	77.5
338.201	73
339.445	80
340.687	79
341.93	75.5
343.173	80.5
344.414	77
345.657	75
346.899	79
348.14	77.5
349.381	75
350.623	83
351.863	82
353.104	82.5
354.346	84
355.585	81.5
356.826	77
358.065	82.5
359.305	74.5
360.545	71
361.784	80.5
363.023	70
364.261	76.5
365.501	79.5
366.738	81
367.977	74.5
369.216	73.5
370.453	84.5
371.691	77
372.928	78
374.166	78.5
375.402	87
376.64	84
377.876	79.5
379.111	72.5
380.348	68.5
381.584	70.5
382.82	75
384.055	76
385.291	76
386.526	77
387.76	76
388.996	77.5
390.229	75
391.465	81.5
392.698	82.5
393.931	73
395.166	72.5
396.399	75
397.632	75
398.866	76
400.098	71.5
401.33	78
402.563	74
403.795	69
405.027	72.5
406.259	77.5
407.491	74.5
408.721	73
409.954	76.5
411.184	76
412.415	72.5
413.645	71
414.876	68.5
416.106	74.5
417.335	70.5
418.565	78
419.794	67
421.024	75.5
422.253	74
423.482	77
424.71	70.5
425.938	80.5
427.168	73.5
428.396	71.5
429.623	77
430.851	67
432.078	76
433.305	77
434.532	73.5
435.758	80
436.986	79.5
438.212	75
439.438	83
440.664	81
441.89	79
443.115	76
444.34	83.5
445.566	84.5
446.79	80
448.015	84.5
449.24	84.5
450.464	78.5
451.688	80
452.912	89.5
454.135	88
455.359	83
456.582	84
457.805	87
459.028	90.5
460.251	88
461.473	87
462.696	91
463.918	97.5
465.14	100.5
466.36	102
467.582	113
468.803	118
470.024	119
471.245	128.5
472.466	138
473.686	143.5
474.907	157
476.126	174
477.346	169.5
478.565	197
479.785	212
481.004	240.5
482.224	259.5
483.441	295.5
484.66	297
485.879	322.5
487.097	336.5
488.314	335.5
489.532	350
490.75	333
491.967	324
493.184	310
494.401	300.5
495.618	295
496.835	265
498.05	256
499.267	236.5
500.483	213.5
501.698	213.5
502.913	196.5
504.129	182
505.343	174.5
506.559	168
507.774	157.5
508.987	153
510.202	146.5
511.415	137
512.63	136
513.844	133
515.056	124
516.27	111
517.482	110
518.696	114
519.907	111.5
521.121	106
522.332	109
523.545	106.5
524.757	95
525.968	104
527.18	96.5
528.39	91
529.602	89
530.812	93
532.023	90
533.233	93
534.443	84
535.653	91
536.862	86.5
538.073	85
539.281	84
540.491	85
541.7	88.5
542.908	77
544.117	85.5
545.325	85.5
546.534	88.5
547.741	79
548.949	82
550.157	74
551.364	78
552.57	81
553.778	80.5
554.985	79
556.191	77.5
557.398	80
558.604	79
559.809	75.5
561.014	71.5
562.221	70.5
563.426	75.5
564.63	74.5
565.835	76
567.041	80
568.245	77.5
569.449	75.5
570.653	75
571.856	77.5
573.061	71.5
574.264	74
575.467	77
576.67	73
577.873	69
579.076	72.5
580.279	71.5
581.481	76.5
582.683	75.5
583.884	75.5
585.086	69
586.287	73.5
587.488	75
588.689	71
589.891	78
591.092	73
592.292	73.5
593.492	69
594.692	73
595.892	74.5
597.092	73
598.291	67.5
599.49	75
600.689	68
601.888	77
603.087	76.5
604.285	73
605.483	74
606.681	72.5
607.879	71
609.077	71
610.274	74.5
611.472	69
612.668	81.5
613.865	73
615.061	67
616.258	75.5
617.454	72.5
618.65	69
619.846	69.5
621.042	75.5
622.238	68.5
623.432	73
624.627	72
625.822	76
627.017	78.5
628.212	79.5
629.406	72
630.599	77.5
631.793	78
632.987	78.5
634.181	80.5
635.373	73.5
636.566	79
637.76	77
638.953	76.5
640.144	72
641.337	76
642.529	80
643.721	79
644.912	81.5
646.104	76
647.295	75
648.485	67
649.677	72.5
650.868	76.5
652.057	73
653.248	81
654.437	78
655.628	72
656.818	78
658.006	78.5
659.196	81
660.384	79
661.574	83
662.763	86.5
663.951	79.5
665.14	81.5
666.327	86
667.515	82
668.702	88
669.891	91
671.077	81
672.265	87.5
673.451	89
674.638	93
675.824	94.5
677.011	97
678.197	101.5
679.383	111
680.568	110.5
681.755	111.5
682.939	122
684.124	128
685.309	131.5
686.494	126
687.679	128
688.863	124
690.046	124
691.231	124
692.414	127
693.599	118
694.781	123
695.964	121.5
697.148	129
698.33	134
699.512	142.5
700.694	151
701.877	158
703.059	175
704.24	185
705.423	206.5
706.604	249
707.784	254
708.965	272
710.147	274.5
711.327	236.5
712.507	210.5
713.687	194.5
714.867	160.5
716.048	140.5
717.227	120.5
718.406	107
719.585	106.5
720.764	94
721.942	91.5
723.122	87
724.3	90
725.478	90
726.656	81
727.834	81
729.011	76.5
730.189	77.5
731.366	80
732.543	72.5
733.719	76.5
734.896	80
736.072	75
737.249	77
738.426	76
739.602	73.5
740.777	75
741.953	70
743.128	73
744.303	72.5
745.477	69.5
746.651	71
747.826	72
749	66
750.174	69.5
751.348	71.5
752.522	76
753.696	74
754.869	71
756.043	72
757.216	73
758.389	72
759.561	71.5
760.732	74
761.905	69.5
763.077	65
764.249	71.5
765.421	75
766.592	67
767.762	69
768.934	70.5
770.105	69
771.275	69.5
772.446	71
773.615	78
774.786	71
775.956	72
777.126	74
778.294	75.5
779.464	81
780.633	80
781.801	88.5
782.97	83
784.139	94.5
785.306	94
786.475	96
787.643	104.5
788.81	100.5
789.978	105
791.146	91.5
792.312	99
793.479	92.5
794.647	90.5
795.812	86
796.979	89.5
798.144	86
799.311	89
800.477	87.5
801.642	79
802.808	74
803.972	76
805.138	75
806.302	77
807.467	80.5
808.631	74.5
809.796	72.5
810.959	74.5
812.124	74
813.287	74
814.451	74.5
815.614	74
816.777	70.5
817.94	70.5
819.102	75.5
820.265	74.5
821.427	68
822.59	70
823.751	70
824.912	65
826.074	70
827.235	68.5
828.397	73.5
829.558	68
830.718	72.5
831.879	76
833.039	70
834.199	70
835.359	73.5
836.519	71
837.679	69
838.838	66
839.998	72
841.156	71.5
842.315	79
843.473	68.5
844.633	71
845.791	72.5
846.948	77.5
848.106	73.5
849.263	69
850.422	67
851.579	68
852.736	77.5
853.892	77
855.049	81.5
856.205	81
857.363	78.5
858.519	84.5
859.674	83
860.83	86.5
861.986	84
863.141	79.5
864.296	89.5
865.451	85
866.605	86
867.76	80
868.914	77.5
870.069	76.5
871.224	79
872.378	79.5
873.531	71.5
874.685	78
875.838	77.5
876.991	74
878.144	75.5
879.296	71
880.448	69.5
881.6	68
882.753	74
883.905	70
885.057	72.5
886.208	71
887.36	66
888.511	73
889.662	68.5
890.813	65
891.964	64.5
893.113	63.5
894.264	68.5
895.414	65
896.564	64
897.714	63.5
898.864	64.5
900.012	65
901.161	65.5
902.31	68.5
903.459	63.5
904.607	62
905.756	61
906.904	63.5
908.052	65
909.199	62.5
910.347	60.5
911.495	64.5
912.643	63
913.789	66
914.936	65.5
916.083	70.5
917.229	60.5
918.375	62
919.522	61
920.667	66
921.813	63
922.959	63
924.104	66.5
925.249	62.5
926.393	60
927.539	66.5
928.684	60.5
929.827	57.5
930.972	59.5
932.115	59.5
933.26	61
934.403	60
935.547	63.5
936.689	68.5
937.833	63.5
938.975	62
940.119	63.5
941.26	63.5
942.404	60.5
943.545	60
944.688	59
945.829	68
946.971	51
948.112	63.5
949.253	64.5
950.394	65.5
951.535	56
952.676	65.5
953.816	63
954.956	58
956.097	67.5
957.236	62.5
958.377	63
959.516	65.5
960.655	66
961.793	65
962.933	63.5
964.071	55.5
965.21	62
966.349	61
967.487	66.5
968.624	62
969.762	67
970.901	63.75
972.038	60
973.175	61.5
974.311	64.5
975.449	60
976.586	61.5
977.722	60
978.858	68
979.994	61.5
981.131	63.5
982.267	62.5
983.402	60
984.537	60
985.672	63.5
986.807	59
987.942	65.5
989.076	59.5
990.211	67.5
991.346	60
992.48	64
993.614	60
994.748	69
995.881	58
997.014	65
998.148	59
999.28	65.5
1000.41	61.5
1001.55	64.5
1002.68	65.5
1003.81	58
1004.94	57
1006.07	62.5
1007.21	63
1008.34	65
1009.47	61.5
1010.6	61
1011.73	57.5
1012.86	63.5
1013.99	59
1015.12	65
1016.25	58.5
1017.38	62
1018.51	59
1019.64	63
1020.77	63.5
1021.9	60
1023.03	60
1024.16	63.5
1025.29	59.5
1026.42	65
1027.54	62
1028.67	63.5
1029.8	67
1030.93	64
1032.06	59
1033.18	59
1034.31	53.5
1035.44	63.5
1036.56	60.5
1037.69	58.5
1038.82	62
1039.94	63
1041.07	60.5
1042.2	56.5
1043.32	56
1044.45	66.5
1045.57	61
1046.7	60
1047.82	62.5
1048.95	62.5
1050.07	63
1051.2	59.5
1052.32	61
1053.45	59
1054.57	66.5
1055.69	67
1056.82	65
1057.94	64.5
1059.06	63.5
1060.19	60.5
1061.31	65.5
1062.43	67
1063.55	59
1064.68	61.5
1065.8	67
1066.92	62.5
1068.04	61
1069.16	57.5
1070.28	66
1071.41	62
1072.53	58.5
1073.65	60
1074.77	69.5
1075.89	63.5
1077.01	68
1078.13	58
1079.25	56.5
1080.37	63.5
1081.49	57.5
1082.61	64
1083.73	60.5
1084.85	59
1085.96	66.5
1087.08	63.5
1088.2	60
1089.32	59
1090.44	64
1091.56	66.5
1092.67	62
1093.79	61.5
1094.91	69
1096.03	63
1097.14	62.5
1098.26	62
1099.38	57
1100.49	62
1101.61	61
1102.73	59.5
1103.84	65
1104.96	63.5
1106.07	59
1107.19	61
1108.3	58.5
1109.42	63
1110.53	62
1111.65	63
1112.76	55.5
1113.88	64
1114.99	55
1116.1	62
1117.22	59
1118.33	63
1119.44	62
1120.56	56
1121.67	56
1122.78	64.5
1123.9	58.5
1125.01	59
1126.12	59.5
1127.23	60
1128.34	52
1129.46	57
1130.57	53
1131.68	53
1132.79	62.5
1133.9	57.5
1135.01	59.5
1136.12	61.5
1137.23	58
1138.34	59
1139.45	61.5
1140.56	60
1141.67	63.5
1142.78	57.5
1143.89	62.5
1145	59
1146.11	60
1147.22	61
1148.33	60
1149.44	60
1150.54	60
1151.65	64.5
1152.76	57
1153.87	58
1154.97	60.5
1156.08	61
1157.19	63
1158.3	61
1159.4	62
1160.51	59.5
1161.62	53
1162.72	56
1163.83	63
1164.93	55
1166.04	49.5
1167.15	56
1168.25	60.5
1169.36	56
1170.46	56
1171.57	63.5
1172.67	62.5
1173.78	58
1174.88	56
1175.98	62.5
1177.09	59.5
1178.19	57
1179.3	52.5
1180.4	59
1181.5	54.5
1182.61	62
1183.71	60
1184.81	61.5
1185.91	62
1187.02	60
1188.12	53
1189.22	59
1190.32	59
1191.42	57
1192.53	58
1193.63	57
1194.73	55.0129
1195.83	58.985
1196.93	64.4689
1198.03	60.1212
1199.13	51.4528
1200.23	57.6296
1201.33	61.1066
1202.43	59.9564
1203.53	57.6713
1204.63	58.6933
1205.73	61.3383
1206.83	63.1489
1207.93	54.0817
1209.02	57.0671
1210.12	58.7658
1211.22	55.7223
1212.32	58.2897
1213.42	60.0772
1214.52	56.9351
1215.61	59.6995
1216.71	62.5132
1217.81	57.9619
1218.91	57.0461
1220	62.1285
1221.1	56.552
1222.2	55.2346
1223.29	58.3721
1224.39	54.2218
1225.49	59.9733
1226.58	58.2849
1227.68	59.2662
1228.77	56.5036
1229.87	56.4981
1230.96	59.1553
1232.06	62.4365
1233.15	63.6502
1234.25	59.845
1235.34	58.8737
1236.44	60.6172
1237.53	62.2659
1238.63	61.5036
1239.72	63.3547
1240.81	56.6942
1241.91	59.1266
1243	61.5544
1244.09	64.2576
1245.19	58.4852
1246.28	58.1597
1247.37	61.7365
1248.46	60.6204
1249.56	64.2308
1250.65	63.2712
1251.74	64.7457
1252.83	67.4673
1253.92	68.4917
1255.01	66.1341
1256.11	68.1674
1257.2	71.1236
1258.29	71.1079
1259.38	75.7823
1260.47	73.0555
1261.56	72.1331
1262.65	74.816
1263.74	76.6203
1264.83	73.9273
1265.92	73.9428
1267.01	71.0772
1268.1	66.8093
1269.19	64.5594
1270.27	65.0346
1271.36	64.329
1272.45	64.2403
1273.54	64.9078
1274.63	63.979
1275.72	57.7277
1276.8	60.6955
1277.89	59.9874
1278.98	62.3829
1280.07	58.4129
1281.15	59.906
1282.24	56.0604
1283.33	57.8849
1284.41	62.6704
1285.5	63.8724
1286.59	60.6543
1287.67	60.444
1288.76	58.947
1289.84	56.7106
1290.93	57.832
1292.01	57.8098
1293.1	58.1251
1294.19	57.1513
1295.27	53.8261
1296.35	59.101
1297.44	56.2249
1298.52	59.7936
1299.61	59.6307
1300.69	58.2666
1301.78	58.2816
1302.86	58.1552
1303.94	58.7263
1305.03	59.2915
1306.11	58.754
1306.4	58.5
1307.49	57
1308.57	63.5
1309.66	60
1310.75	58
1311.84	60
1312.92	56
1314.01	56.5
1315.1	62.5
1316.19	53
1317.27	63.5
1318.36	55
1319.45	61.5
1320.53	55.5
1321.62	63.5
1322.7	62.5
1323.79	61.5
1324.88	56
1325.96	58
1327.05	60
1328.13	57.5
1329.21	62
1330.3	57
1331.38	59
1332.47	57.5
1333.55	55
1334.64	59
1335.72	54.5
1336.8	56
1337.89	59
1338.97	57
1340.05	59
1341.14	55
1342.22	61
1343.3	63.5
1344.39	61
1345.47	60
1346.55	53
1347.63	63
1348.71	56.5
1349.79	58.5
1350.88	54
1351.96	56
1353.04	54
1354.12	58.5
1355.2	63.5
1356.28	57.5
1357.36	58
1358.44	56.5
1359.52	58
1360.6	57
1361.68	58.5
1362.76	57.5
1363.84	63.5
1364.92	56.5
1366	60.5
1367.08	65.5
1368.16	63.5
1369.23	59.5
1370.31	64.5
1371.39	58
1372.47	65.5
1373.55	61
1374.62	62
1375.7	66.5
1376.78	63
1377.85	66.5
1378.93	62.5
1380.01	57
1381.09	59.5
1382.16	63
1383.24	67.5
1384.31	61.5
1385.39	64
1386.47	67
1387.54	65
1388.62	69
1389.69	69
1390.77	65
1391.84	68
1392.92	73.5
1393.99	70
1395.06	74
1396.14	73
1397.21	75.5
1398.29	79
1399.36	91
1400.43	85.5
1401.51	96.5
1402.58	91.5
1403.65	98.5
1404.73	100.5
1405.8	92
1406.87	100
1407.94	98
1409.02	102.5
1410.09	102.5
1411.16	104
1412.23	99
1413.3	101.5
1414.37	104
1415.45	95
1416.52	104.5
1417.59	95.5
1418.66	93.5
1419.73	80
1420.8	84
1421.87	84.5
1422.94	80
1424.01	78.5
1425.08	77
1426.15	78.5
1427.22	67
1428.29	70.5
1429.35	73
1430.42	70
1431.49	68
1432.56	74.5
1433.63	63
1434.7	68
1435.77	67
1436.83	68
1437.9	66.5
1438.97	68
1440.04	66
1441.1	68.5
1442.17	57
1443.24	64.5
1444.3	58.5
1445.37	67.5
1446.44	65
1447.5	65
1448.57	64
1449.63	56.5
1450.7	63.5
1451.76	62
1452.83	71
1453.89	68.5
1454.96	62
1456.02	57
1457.09	68
1458.15	57.5
1459.22	64
1460.28	64.5
1461.34	63
1462.41	60.5
1463.47	62.5
1464.54	60.5
1465.6	57
1466.66	62.5
1467.72	63
1468.79	64.5
1469.85	61
1470.91	57
1471.97	62
1473.04	64
1474.1	62
1475.16	58.5
1476.22	63.5
1477.28	62
1478.34	64.5
1479.4	62
1480.47	66.5
1481.53	64
1482.59	58
1483.65	67.5
1484.71	60
1485.77	62
1486.83	61
1487.89	64.5
1488.95	68
1490.01	61
1491.07	59.5
1492.12	64.5
1493.18	64
1494.24	58.5
1495.3	65
1496.36	63
1497.42	60.5
1498.47	64.5
1499.53	62.5
1500.59	61
1501.65	66
1502.7	58
1503.76	57.5
1504.82	63
1505.88	59.5
1506.93	61.5
1507.99	63.5
1509.05	54.5
1510.1	57.5
1511.16	58.5
1512.21	55
1513.27	65.5
1514.32	57
1515.38	62
1516.43	62
1517.49	56.5
1518.54	54.5
1519.6	55.5
1520.65	60
1521.71	56
1522.76	59
1523.82	63
1524.87	59.5
1525.92	60
1526.98	54.5
1528.03	57
1529.08	59.5
1530.14	62
1531.19	62
1532.24	61
1533.3	57
1534.35	57
1535.4	58
1536.45	61.5
1537.5	57.5
1538.56	61
1539.61	59
1540.66	58
1541.71	55
1542.76	58
1543.81	61.5
1544.86	55.5
1545.91	58
1546.96	60
1548.01	63
1549.06	60
1550.11	62.5
1551.16	58.5
1552.21	59.5
1553.26	60
1554.31	57.5
1555.36	59.5
1556.41	57.5
1557.46	58.5
1558.51	59.5
1559.55	54
1560.6	56
1561.65	56.5
1562.7	57.5
1563.75	62
1564.79	52
1565.84	58.5
1566.89	55
1567.94	59
1568.98	64.5
1570.03	59
1571.07	59
1572.12	56
1573.17	53.5
1574.21	59.5
1575.26	61.5
1576.31	58
1577.35	57.5
1578.4	56.5
1579.44	57
1580.49	57.5
1581.53	54.5
1582.58	54
1583.62	62.5
1584.67	56.5
1585.71	61
1586.75	59
1587.8	56.5
1588.84	58.5
1589.89	55
1590.93	53
1591.97	60
1593.02	51
1594.06	57
1595.1	55
1596.14	55.5
1597.19	62
1598.23	55
1599.27	53.5
1600.31	60
1601.35	54
1602.4	55.5
1603.44	56.5
1604.48	56.5
1605.52	58
1606.56	51.5
1607.6	54.5
1608.64	58.5
1609.68	62
1610.72	55
1611.76	53
1612.8	56.5
1613.84	56.5
1614.88	57
1615.92	59.5
1616.96	56
1618	60
1619.04	54.5
1620.08	52
1621.12	54.5
1622.16	54
1623.19	49
1624.23	54
1625.27	55
1626.31	56
1627.35	54.5
1628.38	54
1629.42	51
1630.46	56
1631.5	53.5
1632.53	54
1633.57	53.5
1634.61	55
1635.64	56.5
1636.68	59
1637.71	50
1638.75	57
1639.79	57
1640.82	55
1641.86	56.5
1642.89	54.5
1643.93	52.5
1644.96	53
1646	54.5
1647.03	59
1648.07	58.5
1649.1	50.5
1650.14	51.5
1651.17	54
1652.2	61
1653.24	57.5
1654.27	55
1655.3	56.5
1656.34	53.5
1657.37	56
1658.4	57.5
1659.44	51.5
1660.47	52
1661.5	52
1662.53	57
1663.57	51
1664.6	51.5
1665.63	51
1666.66	50.5
1667.69	50.5
1668.72	59
1669.75	51.5
1670.79	57
1671.82	52
1672.85	51
1673.88	49.5
1674.91	52.5
1675.94	56
1676.97	53.5
1678	45.5
1679.03	54
1680.06	55
1681.09	52
1682.11	51
1683.14	55
1684.17	53
1685.2	54.5
1686.23	54.5
1687.26	53.5
1688.29	48.5
1689.32	53
1690.34	55.5
1691.37	54
1692.4	55
1693.43	51
1694.45	52
1695.48	53.5
1696.51	51.5
1697.53	58.5
1698.56	55
1699.59	53
1700.61	55
1701.64	52
1702.66	46
1703.69	53.5
1704.72	54
1705.74	52.5
1706.77	50.5
1707.79	47
1708.82	52
1709.84	54
1710.87	52.5
1711.89	48.5
1712.92	55
1713.94	54.5
1714.96	52.5
1715.99	50.5
1717.01	53.5
1718.04	49
1719.06	51.5
1720.08	50
1721.11	52.5
1722.13	47
1723.15	55
1724.17	51
1725.2	57.5
1726.22	53.5
1727.24	47
1728.26	53.5
1729.28	53
1730.31	50
1731.33	48.5
1732.35	47.5
1733.37	50.5
1734.39	50
1735.41	49
1736.43	52
1737.45	53
1738.47	54
1739.49	51
1740.51	52
1741.53	53.5
1742.55	53
1743.57	49
1744.59	51
1745.61	51.5
1746.63	49.5
1747.65	49.5
1748.67	48
1749.69	49
1750.71	50
1751.72	51
1752.74	51.5
1753.76	51.5
1754.78	48.5
1755.8	52
1756.81	48.5
1757.83	48
1758.85	51
1759.86	48.5
1760.88	53.5
1761.9	53
1762.91	52.5
1763.93	49.5
1764.95	46
1765.96	50
1766.98	51
1768	47.5
1769.01	50
1770.03	51.5
1771.04	50
1772.06	55
1773.07	52.5
1774.09	56.5
1775.1	51
1776.12	48
1777.13	52.5
1778.14	50
1779.16	48.5
1780.17	53
1781.19	52
1782.2	51.5
1783.21	53
1784.23	46.5
1785.24	47
1786.25	50
1787.27	52
1788.28	54
1789.29	52.5
1790.3	47
1791.32	50
1792.33	49
1793.34	48
1794.35	47.5
1795.36	52
1796.37	49.5
1797.38	50
1798.4	52.5
1799.41	54
1800.42	53
1801.43	47
1802.44	44.5
1803.45	50.5
1804.46	50
1805.47	51.5
1806.48	49
1807.49	46
1808.5	49
1809.51	50.5
1810.52	52.5
1811.53	50.5
1812.53	56.5
1813.54	50.5
1814.55	51
1815.56	49
1816.57	43.5
1817.58	49
1818.58	51.5
1819.59	44.5
1820.6	51.5
1821.61	48
1822.61	46.5
1823.62	47
1824.63	49
1825.64	50
1826.64	53
1827.65	49
1828.66	51.5
1829.66	53
1830.67	49
1831.67	45
1832.68	50.5
1833.68	51
1834.69	50.5
1835.7	47.5
1836.7	50
1837.71	50.5
1838.71	48
1839.71	51
1840.72	47
1841.72	50
1842.73	47
1843.73	43
1844.74	46
1845.74	50.5
1846.74	45
1847.75	47
1848.75	45.5
1849.75	44
1850.76	50.5
1851.76	52
1852.76	49.5
1853.76	48
1854.77	51.5
1855.77	52
1856.77	49
1857.77	51
1858.77	49
1859.78	45
1860.78	48
1861.78	45.5
1862.78	51.5
1863.78	52.5
1864.78	54.5
1865.78	46
1866.78	48.5
1867.78	50
1868.78	53.5
1869.78	47.5
1870.78	48
1871.78	49
1872.78	50
1873.78	48.5
1874.78	45.5
1875.78	45
1876.78	47.5
1877.78	49
1878.78	48.5
1879.77	48
1880.77	50.5
1881.77	49
1882.77	49
1883.77	47
1884.76	55
1885.76	47
1886.76	47
1887.76	50
1888.75	49
1889.75	50
1890.75	47.5
1891.74	49
1892.74	48
1893.74	45
1894.73	48.5
1895.73	50
1896.72	48
1897.72	51.5
1898.72	51
1899.71	47.5
1900.71	46
1901.7	48
1902.7	48.5
1903.69	38
1904.69	49
1905.68	48
1906.67	46
1907.67	49
1908.66	46
1909.66	48
1910.65	48.5
1911.64	47
1912.64	47
1913.63	47.5
1914.62	47
1915.62	45.5
1916.61	48
1917.6	46.5
1918.59	43.5
1919.59	46.5
1920.58	44
1921.57	46.5
1922.56	51
1923.55	45.5
1924.55	52
1925.54	45
1926.53	48
1927.52	46
1928.51	45.5
1929.5	47
1930.49	43
1931.48	43.5
1932.47	46
1933.46	47
1934.45	45
1935.44	43.5
1936.43	41.5
1937.42	44
1938.41	44.5
1939.4	47.5
1940.39	51
1941.38	44.5
1942.37	46
1943.36	45
1944.34	46.5
1945.33	44
1946.32	46.5
1947.31	46.5
1948.3	45.75
1949.28	44
1950.27	50
1951.26	50.5
1952.25	46.5
1953.23	46
1954.22	46.5
1955.21	46.5
1956.2	48
1957.18	49
1958.17	53
1959.15	41
1960.14	47
1961.13	44
1962.11	45
1963.1	47
1964.08	45.5
1965.07	48.5
1966.05	46
1967.04	44.5
1968.02	45
1969.01	45.5
1969.99	42.5
1970.98	46
1971.96	43.5
1972.94	42
1973.93	46
1974.91	49
1975.9	41.5
1976.88	51
1977.86	43.5
1978.85	47.5
1979.83	41.5
1980.81	47
1981.8	47.5
1982.78	43
1983.76	47
1984.74	43
1985.72	49.5
1986.71	42.5
1987.69	46.5
1988.67	46
1989.65	49.5
1990.63	45.5
1991.61	42
1992.6	46
1993.58	45.5
1994.56	44.5
1995.54	46.5
1996.52	47
1997.5	45
1998.48	47
1999.46	47
2000.44	40
2001.42	45
2002.4	44
2003.38	45
2004.36	48
2005.34	46.5
2006.32	39
2007.29	44
2008.27	43
2009.25	42.5
2010.23	40
2011.21	45
2012.19	43.5
2013.16	44
2014.14	51
2015.12	44
2016.1	45
2017.07	47
2018.05	39.5
2019.03	44
2020	47
2020.98	46.5
2021.96	48.5
2022.93	42
2023.91	42
2024.89	46
2025.86	46
2026.84	45.5
2027.81	44.5
2028.79	44
2029.77	45.5
2030.74	46.5
2031.72	48
2032.69	43
2033.67	44.5
2034.64	41
2035.61	41.5
2036.59	47.5
2037.56	48
2038.54	48
2039.51	46
2040.48	45.5
2041.46	44
2042.43	47
2043.41	50
2044.38	45
2045.35	44
2046.32	44.5
2047.3	45.5
2048.27	43.5
2049.24	44.5
2050.21	44.5
2051.19	45
2052.16	40
2053.13	48
2054.1	42
2055.07	40.5
2056.04	41.5
2057.02	45.5
2057.99	41.5
2058.96	45
2059.93	43
2060.9	48
2061.87	42
2062.84	50
2063.81	46
2064.78	45
2065.75	43.5
2066.72	43
2067.69	42
2068.66	44.5
2069.63	43
2070.6	45.5
2071.57	43.5
2072.53	42
2073.5	45.5
2074.47	46
2075.44	43
2076.41	45.5
2077.38	46
2078.34	40
2079.31	46.5
2080.28	42
2081.25	46.5
2082.21	42
2083.18	39
2084.15	45.5
2085.12	44.5
2086.08	44
2087.05	40
2088.02	42.5
2088.98	43.5
2089.95	38.5
2090.91	47
2091.88	45.5
2092.85	45
2093.81	44
2094.78	40
2095.74	42
2096.71	44.5
2097.67	41.5
2098.64	40
2099.6	40.5
2100.57	48
2101.53	43
2102.5	46
2103.46	42
2104.42	41.5
2105.39	39.5
2106.35	42.5
2107.31	37.5
2108.28	44.5
2109.24	46.5
2110.2	44
2111.17	42.5
2112.13	42
2113.09	42
2114.06	44.5
2115.02	39.5
2115.98	42
2116.94	38.5
2117.9	46.5
2118.86	44
2119.83	40
2120.79	40
2121.75	43.5
2122.71	44.5
2123.67	45.5
2124.63	44.5
2125.59	41
2126.55	48.5
2127.51	42
2128.48	41
2129.43	41.5
2130.4	41
2131.35	47.5
2132.31	43
2133.27	41.5
2134.23	39
2135.19	43.5
2136.15	39
2137.11	48
2138.07	44.5
2139.03	36
2139.99	41.5
2140.95	41
2141.9	43.5
2142.86	38.5033
2143.82	39.9576
2144.78	42.0142
2145.74	40.131
2146.69	42.5128
2147.65	47.6114
2148.61	40.98
2149.56	40.5677
2150.52	37.5825
2151.48	40.4221
2152.44	39.7535
2153.39	44.344
2154.35	41.4192
2155.3	41.3996
2156.26	38.5043
2157.22	43.3632
2158.17	42.4571
2159.13	38.4507
2160.08	37.8874
2161.04	43.4851
2161.99	42.0153
2162.95	39.2488
2163.9	38.4289
2164.86	40.4442
2165.81	40.5322
2166.77	41.3891
2167.72	44.882
2168.68	42.8648
2169.63	40.9643
2170.58	43.4011
2171.54	42.1865
2172.49	40.6493
2173.44	42.4895
2174.4	39.781
2175.35	39.698
2176.3	40.068
2177.26	43.4612
2178.21	40.9078
2179.16	38.7289
2180.11	40.9046
2181.07	44.3544
2182.02	38.9222
2182.97	39.7063
2183.92	37.8717
2184.88	38.8777
2185.83	39.6124
2186.78	40.984
2187.73	40.639
2188.68	37.4709
2189.63	40.3897
2190.58	41.0072
2191.53	41.0675
2192.48	44.2673
2193.43	44.4035
2194.38	38.7824
2195.33	41.4799
2196.28	39.0711
2197.23	39.9613
2198.18	42.3695
2199.13	42.2868
2200.08	41.5007
2201.03	40.6421
2201.98	40.1849
2202.93	39.1318
2203.88	38.8871
2204.83	41.4658
2205.78	39.9782
2206.72	38.4459
2207.67	37.6837
2208.62	39.424
2209.57	42.6997
2210.52	41.5392
2211.46	39.2364
2212.41	40.8506
2213.36	41.4681
2214.31	39.7911
2215.25	41.2864
2216.2	43.0854
2217.15	38.8086
2218.09	41.628
2219.04	37.5303
2219.99	41.4138
2220.93	42.6019
2221.88	42.7672
2222.83	39.8728
2223.77	44.2473
2224.72	41.8503
2225.66	38.2908
2226.61	37.8749
2227.55	39.3926
2228.5	43.508
2229.44	42.8952
2230.39	38.7829
2231.33	40.1244
2232.28	40.3762
2233.22	42.1407
2234.17	37.993
2235.11	41.1342
2236.05	42.9325
2237	37.226
2237.94	38.9752
2238.88	40.7525
2239.83	37.4884
2240.04	36.5
2240.98	41
2241.93	41
2242.88	38
2243.83	40
2244.78	35
2245.72	41.5
2246.67	39
2247.62	41
2248.56	41.5
2249.51	38
2250.46	35.5
2251.4	40
2252.35	39
2253.3	38
2254.24	42
2255.19	43.5
2256.14	40
2257.08	43.5
2258.03	44.5
2258.97	39
2259.92	40
2260.86	39
2261.81	41
2262.75	40.5
2263.7	42
2264.64	36
2265.59	39.5
2266.53	39.5
2267.48	40.5
2268.42	50
2269.36	43.5
2270.31	41.5
2271.25	41.5
2272.19	39
2273.14	36
2274.08	39
2275.02	40.5
2275.97	39
2276.91	38.5
2277.85	39
2278.8	41
2279.74	38
2280.68	38
2281.62	43.5
2282.56	42.5
2283.51	41
2284.45	41
2285.39	42
2286.33	35
2287.27	37
2288.21	39
2289.15	43
2290.09	40
2291.04	39
2291.98	40
2292.92	37.5
2293.86	42
2294.8	41
2295.74	38.5
2296.68	39
2297.62	41
2298.56	45.5
2299.5	41.5
2300.44	42
2301.37	37
2302.31	37.5
2303.25	40
2304.19	37
2305.13	41
2306.07	38
2307.01	41.5
2307.94	41
2308.88	41
2309.82	33
2310.76	40.5
2311.7	40
2312.63	40.5
2313.57	39.5
2314.51	41
2315.44	42
2316.38	42.5
2317.32	39
2318.26	39
2319.19	35
2320.13	40.5
2321.06	37
2322	43.5
2322.94	39
2323.87	43
2324.81	39
2325.74	43
2326.68	37.5
2327.61	41
2328.55	39
2329.48	39.5
2330.42	40
2331.35	38
2332.29	39.5
2333.22	40
2334.16	41
2335.09	35
2336.02	35
2336.96	35
2337.89	39
2338.83	38
2339.76	34
2340.69	43
2341.63	39.5
2342.56	44
2343.49	41.5
2344.42	43
2345.36	39.5
2346.29	40
2347.22	41.5
2348.15	38
2349.09	46.5
2350.02	42
2350.95	42.5
2351.88	42
2352.81	43
2353.74	38
2354.68	36
2355.61	41.5
2356.54	39.5
2357.47	39.5
2358.4	42
2359.33	39.5
2360.26	43.5
2361.19	39.5
2362.12	38
2363.05	42
2363.98	42.5
2364.91	39.5
2365.84	41
2366.77	39.5
2367.7	38.5
2368.63	42
2369.56	40
2370.49	40.5
2371.41	40
2372.34	38
2373.27	37.5
2374.2	40
2375.13	42.5
2376.06	38.5
2376.98	37.5
2377.91	36.5
2378.84	39
2379.77	39.5
2380.69	39
2381.62	38
2382.55	43.5
2383.47	42.5
2384.4	41
2385.33	41
2386.25	41
2387.18	38
2388.11	37.5
2389.03	39.5
2389.96	42
2390.89	39
2391.81	41
2392.74	39.5
2393.66	37.5
2394.59	39
2395.51	40
2396.44	39
2397.36	36.5
2398.29	43
2399.21	31
2400.14	37.5
2401.06	40
2401.99	42.5
2402.91	41
2403.83	41.5
2404.76	38
2405.68	39
2406.6	42
2407.53	41
2408.45	42
2409.37	40
2410.3	32.5
2411.22	41
2412.14	37
2413.06	38.5
2413.99	38
2414.91	38.5
2415.83	40.5
2416.75	38.5
2417.68	38
2418.6	43.5
2419.52	34
2420.44	42
2421.36	40
2422.28	42.5
2423.2	41
2424.12	38.5
2425.05	36
2425.97	40.5
2426.89	40.5
2427.81	40.5
2428.73	44
2429.65	40
2430.57	42
2431.49	36
2432.41	38.5
2433.33	35
2434.25	38.5
2435.17	39
2436.08	44
2437	41.5
2437.92	36
2438.84	40
2439.76	39.5
2440.68	40
2441.6	38
2442.51	37.5
2443.43	36.5
2444.35	43.5
2445.27	40
2446.19	38.5
2447.1	40.5
2448.02	39.5
2448.94	37
2449.85	39
2450.77	40.5
2451.69	38
2452.61	40.5
2453.52	37
2454.44	37
2455.35	43
2456.27	37
2457.19	34.5
2458.1	43
2459.02	39
2459.94	42
2460.85	37
2461.77	34
2462.68	40.5
2463.6	37
2464.51	35
2465.43	40
2466.34	40.5
2467.25	34.5
2468.17	40.5
2469.08	35
2470	44.5
2470.91	38
2471.83	40
2472.74	39.5
2473.65	44
2474.57	37
2475.48	39
2476.39	38.5
2477.31	38
2478.22	43.5
2479.13	41.5
2480.04	37.5
2480.96	40
2481.87	39.5
2482.78	43
2483.69	39
2484.6	41.5
2485.52	38.5
2486.43	39
2487.34	42.5
2488.25	39
2489.16	42.5
2490.07	40
2490.99	40.5
2491.9	41.5
2492.81	41
2493.72	43
2494.63	40
2495.54	38
2496.45	38.5
2497.36	40
2498.27	45.5
2499.18	42
2500.09	42.5
2501	41
2501.91	44
2502.82	42.5
2503.73	45.5
2504.63	39
2505.54	39
2506.45	41
2507.36	46.5
2508.27	44.5
2509.18	41
2510.09	42.5
2510.99	39
2511.9	36
2512.81	38
2513.72	41
2514.62	41.5
2515.53	38
2516.44	43
2517.35	32.5
2518.25	39.5
2519.16	36
2520.07	38.5
2520.97	37.5
2521.88	41
2522.79	35
2523.69	41.5
2524.6	36
2525.51	38
2526.41	36
2527.32	43
2528.22	38
2529.13	40
2530.03	34.5
2530.94	40
2531.84	33.5
2532.75	40
2533.65	39
2534.56	34
2535.46	37
2536.37	34.5
2537.27	41.5
2538.17	35
2539.08	41
2539.98	41
2540.89	37
2541.79	36.5
2542.69	36.5
2543.6	34.5
2544.5	38
2545.4	37
2546.31	39
2547.21	33
2548.11	38.5
2549.01	34
2549.92	37
2550.82	39
2551.72	36
2552.62	36.5
2553.52	39.5
2554.42	39
2555.33	37
2556.23	35.5
2557.13	36.5
2558.03	39
2558.93	38.5
2559.83	34
2560.73	36
2561.63	35
2562.53	42.5
2563.43	41
2564.33	40
2565.24	40
2566.13	39
2567.04	40
2567.93	39
2568.83	43.5
2569.73	37
2570.63	40.5
2571.53	40
2572.43	35.5
2573.33	37
2574.23	41
2575.13	35.5
2576.03	38.5
2576.92	37
2577.82	35.5
2578.72	38.5
2579.62	37.5
2580.52	35
2581.41	33.5
2582.31	41
2583.21	35.5
2584.11	39.5
2585	38.5
2585.9	41
2586.8	39
2587.69	35.5
2588.59	40
2589.49	35.5
2590.38	38.5
2591.28	40
2592.18	36.5
2593.07	39
2593.97	39.5
2594.86	36
2595.76	34.5
2596.66	37
2597.55	35
2598.45	34.5
2599.34	34
2600.24	37.5
2601.13	38
2602.03	36
2602.92	40
2603.81	36.5
2604.71	38.5
2605.6	40
2606.5	36.5
2607.39	36
2608.28	41
2609.18	37
2610.07	42
2610.97	38
2611.86	38.5
2612.75	38
2613.64	40
2614.54	39
2615.43	39.5
2616.32	38.5
2617.22	40
2618.11	41
2619	36.5
2619.89	36.5
2620.78	36
2621.68	38
2622.57	40
2623.46	39
2624.35	36
2625.24	40.5
2626.13	37
2627.02	33
2627.91	37.5
2628.81	36.5
2629.7	40
2630.59	33
2631.48	41.5
2632.37	38
2633.26	39
2634.15	34.5
2635.04	39
2635.93	37.5
2636.82	44
2637.71	34.5
2638.59	37.5
2639.48	37.5
2640.37	40
2641.26	39
2642.15	37.5
2643.04	33.5
2643.93	37.5
2644.82	38
2645.71	37
2646.59	38
2647.48	38.5
2648.37	36
2649.26	39.5
2650.15	36
2651.03	40.5
2651.92	38.5
2652.81	36.5
2653.69	35.5
2654.58	37.5
2655.47	37.5
2656.35	32
2657.24	42.5
2658.13	37.5
2659.01	40.5
2659.9	34.5
2660.79	42.5
2661.67	38.5
2662.56	38.5
2663.44	39.5
2664.33	38.5
2665.22	37
2666.1	34.5
2666.99	36
2667.87	37.5
2668.76	33.5
2669.64	41
2670.52	32
2671.41	36
2672.29	40.5
2673.18	37
2674.06	39.5
2674.95	37
2675.83	35
2676.71	34.5
2677.6	37.5
2678.48	33
2679.36	38.5
2680.25	36.5
2681.13	38.5
2682.01	37
2682.9	39
2683.78	36.5
2684.66	36.5
2685.55	34
2686.43	35.5
2687.31	38
2688.19	38
2689.07	35.5
2689.96	39
2690.84	38.5
2691.72	34.5
2692.6	33.5
2693.48	35
2694.36	33
2695.24	38
2696.12	35.5
2697	35.5
2697.89	37
2698.77	36.5
2699.65	37.5
2700.53	35.5
2701.41	35
2702.29	37
2703.17	37
2704.05	33
2704.93	34.5
2705.81	36
2706.69	35
2707.57	40
2708.44	37
2709.32	34
2710.2	35
2711.08	35.5
2711.96	38
2712.84	36
2713.72	37
2714.59	39.5
2715.47	39
2716.35	41
2717.23	36.5
2718.11	35
2718.98	39.5
2719.86	36.5
2720.74	37
2721.62	35.5
2722.49	35.5
2723.37	34.5
2724.25	36.5
2725.12	39
2726	39.5
2726.88	40.5
2727.75	39.5
2728.63	34
2729.51	35
2730.38	39
2731.26	37
2732.13	32
2733.01	39
2733.88	38
2734.76	37
2735.63	37
2736.51	37
2737.38	41
2738.26	37
2739.13	36
2740.01	36
2740.88	34.5
2741.76	38
2742.63	38
2743.5	40
2744.38	39
2745.25	40.5
2746.13	35
2747	40.5
2747.87	41.5
2748.75	42
2749.62	38
2750.49	40
2751.36	36.5
2752.24	37
2753.11	37.5
2753.98	40.5
2754.86	38
2755.73	37.5
2756.6	34.5
2757.47	39.5
2758.34	39
2759.22	38
2760.09	39
2760.96	40
2761.83	38.5
2762.7	33.5
2763.57	43
2764.44	39.5
2765.31	41
2766.18	43
2767.06	40
2767.93	37
2768.8	39
2769.67	39.5
2770.54	42
2771.41	35
2772.28	44.5
2773.15	43.5
2774.02	43.5
2774.89	38
2775.75	45
2776.62	45.5
2777.49	44.5
2778.36	40
2779.23	49.5
2780.1	41.5
2780.97	46
2781.84	42.5
2782.71	48
2783.57	48
2784.44	43.5
2785.31	45.5
2786.18	47.5
2787.04	54
2787.91	53.5
2788.78	52
2789.65	58.5
2790.51	51.5
2791.38	52
2792.25	52
2793.12	56
2793.98	45
2794.85	56.5
2795.72	57.5
2796.58	54.5
2797.45	52
2798.31	56
2799.18	55.5
2800.05	53
2800.91	53.25
2801.78	53
2802.64	61.5
2803.51	61.5
2804.37	56.5
2805.24	56.5
2806.1	56.5
2806.97	57
2807.83	54
2808.7	54
2809.56	58
2810.43	55.5
2811.29	58.5
2812.15	57
2813.02	56
2813.88	52
2814.75	54
2815.61	59.5
2816.47	49
2817.34	53
2818.2	59.5
2819.06	52.5
2819.92	59
2820.79	57.5
2821.65	58.5
2822.51	53
2823.37	56.5
2824.24	59
2825.1	54
2825.96	59.5
2826.82	61
2827.69	51
2828.55	56.5
2829.41	56
2830.27	55.5
2831.13	52.5
2831.99	54
2832.85	54.5
2833.71	57
2834.58	57
2835.44	52.5
2836.3	61.5
2837.16	54
2838.02	52
2838.88	57
2839.74	52
2840.6	55.5
2841.46	56
2842.32	55.5
2843.18	57
2844.04	58
2844.9	52.5
2845.75	58
2846.61	67.5
2847.47	58.5
2848.33	59
2849.19	56
2850.05	59.5
2850.91	55
2851.77	60
2852.62	57.5
2853.48	59
2854.34	63
2855.2	62
2856.06	65.5
2856.91	63
2857.77	59.5
2858.63	58
2859.48	65
2860.34	64.5
2861.2	68
2862.06	65.5
2862.91	74
2863.77	63.5
2864.63	68
2865.48	74.5
2866.34	68.5
2867.19	78
2868.05	75
2868.91	74.5
2869.76	77.5
2870.62	82
2871.47	80.5
2872.33	83
2873.18	83
2874.04	96
2874.89	96
2875.75	97
2876.6	95
2877.46	97
2878.31	97.5
2879.17	102
2880.02	106
2880.88	109
2881.73	115
2882.58	115
2883.44	125
2884.29	125.5
2885.14	129
2886	133
2886.85	148.5
2887.7	152.5
2888.56	163
2889.41	163
2890.26	183.5
2891.12	195.5
2891.97	197.5
2892.82	213
2893.67	226.5
2894.52	238
2895.38	255
2896.23	266.5
2897.08	299
2897.93	326.5
2898.78	349.5
2899.64	357.5
2900.49	394
2901.34	409.5
2902.19	428.5
2903.04	457
2903.89	466.5
2904.74	485
2905.59	514
2906.44	510.5
2907.29	515.5
2908.14	509.5
2908.99	477.5
2909.84	457
2910.69	440.5
2911.54	424.5
2912.39	376
2913.24	363.5
2914.09	341.5
2914.94	297
2915.79	278.5
2916.64	253
2917.49	227.5
2918.34	219
2919.18	199.5
2920.03	188
2920.88	182.5
2921.73	158.5
2922.58	156
2923.42	145
2924.27	138.5
2925.12	134
2925.97	130.5
2926.82	118.5
2927.66	111.5
2928.51	104
2929.36	106.5
2930.2	110
2931.05	97
2931.9	87.5
2932.74	94.5
2933.59	90
2934.44	90
2935.28	86.5
2936.13	91
2936.98	88
2937.82	78
2938.67	86.5
2939.51	79
2940.36	83.5
2941.2	78
2942.05	81.5
2942.9	81.5
2943.74	85.5
2944.58	78
2945.43	80.5
2946.27	87.5
2947.12	92.5
2947.96	98
2948.81	91.5
2949.65	91
2950.5	99
2951.34	94
2952.18	110.5
2953.03	111
2953.87	119.5
2954.71	126
2955.56	122.5
2956.4	138.5
2957.24	141
2958.09	159
2958.93	168.5
2959.77	185.5
2960.62	199
2961.46	206
2962.3	217.5
2963.14	223.5
2963.98	232
2964.83	240
2965.67	240
2966.51	236
2967.35	238.5
2968.19	230
2969.04	217.5
2969.88	210
2970.72	211.5
2971.56	200.888
2972.4	190.174
2973.24	174.174
2974.08	159.917
2974.92	155.355
2975.76	146.903
2976.6	141.255
2977.44	125.475
2978.28	125.802
2979.12	113.585
2979.96	118.771
2980.8	108.07
2981.64	95.5104
2982.48	98.5363
2983.32	87.4598
2984.16	85.0857
2985	82.6389
2985.84	78.1951
2986.68	77.5616
2987.52	70.162
2988.35	71.695
2989.19	75.345
2990.03	69.1576
2990.87	64.1874
2991.71	62.6078
2992.55	64.0165
2993.38	60.9067
2994.22	63.9141
2995.06	58.7833
2995.9	59.4187
2996.73	56.6633
2997.57	56.2251
2998.41	58.1399
2999.25	54.7701
3000.08	54.9437
3000.92	52.3681
3001.76	51.7109
3002.59	49.3693
3003.43	51.8971
3004.27	50.7168
3005.1	48.8002
3005.94	46.4423
3006.78	44.5774
3007.61	49.733
3008.45	46.5033
3009.28	44.6084
3010.12	44.0275
3010.95	43.8101
3011.79	43.8584
3012.62	44.0528
3013.46	43.0026
3014.29	41.9411
3015.13	41.7993
3015.96	42.7044
3016.8	44.5534
3017.63	41.0075
3018.47	42.4165
3019.3	43.3111
3020.14	41.8824
3020.97	43.3384
3021.8	42.4863
3022.64	44.4986
3023.47	40.3193
3024.3	42.4753
3025.14	37.7204
3025.97	39.0155
3026.8	39.7999
3027.64	43.032
3028.47	41.7611
3029.3	40.532
3030.14	40.2174
3030.97	41.4032
3031.8	39.2788
3032.63	38.3445
3033.46	39.1403
3034.3	41.261
3035.13	40.099
3035.96	36.3799
3036.79	34.4277
3037.62	35.4787
3038.46	37.9388
3039.29	38.711
3040.12	39.0752
3040.95	36.2923
3041.78	36.46
3042.61	38.3814
3043.44	38.7896
3044.27	37.4182
3045.1	35.994
3045.93	38.219
3046.76	37.0042
3047.59	35.6515
3048.42	38.6279
3049.25	35.2392
3050.08	37.4536
3050.91	37.4426
3051.74	34.8846
3052.57	36.5243
3053.4	38.5786
3054.23	36.5245
3055.06	33.182
3055.89	33.3406
3056.72	34.4388
3057.32	35.5
3058.15	37
3058.98	38.5
3059.82	37
3060.65	39.5
3061.48	34
3062.31	38.5
3063.15	41.5
3063.98	36
3064.81	36.5
3065.64	36
3066.48	38.5
3067.31	38
3068.14	34
3068.97	40
3069.8	36
3070.63	34.5
3071.47	35.5
3072.3	38.5
3073.13	37
3073.96	39.5
3074.79	37.5
3075.62	39.5
3076.45	39.5
3077.28	40.5
3078.11	38
3078.94	35.5
3079.77	38.5
3080.6	39
3081.43	40
3082.26	40.5
3083.09	37.5
3083.92	38
3084.75	35
3085.58	39
3086.41	37
3087.24	36
3088.07	42.5
3088.9	39
3089.73	37
3090.55	36
3091.38	36
3092.21	40
3093.04	35
3093.87	42.5
3094.7	39.5
3095.52	40
3096.35	29
3097.18	36
3098.01	41.5
3098.84	39.5
3099.66	39
3100.49	34
3101.32	40.5
3102.14	39.5
3102.97	41
3103.8	40.5
3104.62	39.5
3105.45	36.5
3106.28	44.5
3107.1	39
3107.93	42
3108.76	37.5
3109.58	38
3110.41	35
3111.23	35.5
3112.06	40.5
3112.89	39.5
3113.71	38
3114.54	37.5
3115.36	36
3116.19	40.5
3117.01	33
3117.84	36.5
3118.66	39
3119.49	38
3120.31	36
3121.13	40.5
3121.96	37
3122.78	36
3123.61	39.5
3124.43	35
3125.25	33
3126.08	37
3126.9	36.5
3127.73	33.5
3128.55	38.5
3129.37	40.5
3130.19	40
3131.02	35
3131.84	40
3132.66	36.5
3133.49	39
3134.31	33
3135.13	32
3135.95	37.5
3136.78	36.5
3137.6	34
3138.42	38
3139.24	37
3140.06	32.5
3140.88	35.5
3141.71	34.5
3142.53	35.5
3143.35	31.5
3144.17	39.5
3144.99	35.5
3145.81	33
3146.63	32.5
3147.45	37.5
3148.27	37
3149.09	36
3149.91	35.5
3150.73	32.5
3151.56	30
3152.37	37
3153.2	32
3154.01	36
3154.83	34.5
3155.65	37
3156.47	36
3157.29	35
3158.11	31.5
3158.93	35.5
3159.75	35.5
3160.57	38.5
3161.39	35.5
3162.21	36
3163.02	35
3163.84	33.5
3164.66	34
3165.48	33
3166.3	37.5
3167.11	35
3167.93	29
3168.75	35
3169.57	33.5
3170.39	28
3171.2	32.5
3172.02	30
3172.84	38
3173.65	34.5
3174.47	35
3175.29	31
3176.1	33
3176.92	37
3177.74	36.5
3178.55	31.5
3179.37	34
3180.19	33
3181	34.5
3181.82	33.5
3182.63	32
3183.45	33.5
3184.27	35
3185.08	31
3185.9	36
3186.71	34.5
3187.53	30.5
3188.34	32.5
3189.16	29
3189.97	31
3190.79	32.5
3191.6	32
3192.41	35
3193.23	32
3194.04	33
3194.86	31.5
3195.67	28
3196.48	36
3197.3	33.5
3198.11	31
3198.93	35.5
3199.74	33.5
3200.55	31
3201.36	35
3202.18	36
3202.99	32.5
3203.8	28.5
3204.62	38
3205.43	33
3206.24	33.5
3207.05	32.5
3207.87	34
3208.68	34.5
3209.49	32
3210.3	34.5
3211.11	32
3211.93	34
3212.74	32
3213.55	33
3214.36	33.5
3215.17	29.5
3215.98	29.5
3216.79	32
3217.6	35
3218.41	32.5
3219.22	32
3220.03	29.5
3220.85	33
3221.66	27
3222.47	31
3223.28	28.5
3224.09	32
3224.9	31.5
3225.71	32
3226.52	29.5
3227.33	32.5
3228.13	33
3228.94	33
3229.75	32.5
3230.56	36
3231.37	31.5
3232.18	31.5
3232.99	33
3233.8	30
3234.61	35
3235.41	29.5
3236.22	29
3237.03	35
3237.84	34
3238.65	30
3239.45	32
3240.26	35.5
3241.07	32.5
3241.88	30
3242.68	33
3243.49	32.5
3244.3	30
3245.1	28.5
3245.91	30
3246.72	32.5
3247.53	34.5
3248.33	32
3249.14	27
3249.95	27
3250.75	34.5
3251.56	31
3252.36	33.5
3253.17	38.5
3253.97	29
3254.78	33
3255.59	30
3256.39	33
3257.2	31
3258	32
3258.81	33
3259.61	29.5
3260.42	32.5
3261.22	33.5
3262.03	29.5
3262.83	28
3263.64	29.5
3264.44	31
3265.24	32.5
3266.05	31.5
3266.85	33
3267.66	36
3268.46	30
3269.26	31
3270.07	27
3270.87	29
3271.67	29
3272.48	29.5
3273.28	31.5
3274.08	31.5
3274.89	30
3275.69	32.5
3276.49	30
3277.29	31
3278.1	31
3278.9	35
3279.7	32
3280.5	26
3281.3	31
3282.11	31
3282.91	29.5
3283.71	32
3284.51	31
3285.31	34
3286.11	33
3286.91	29.5
3287.72	32.5
3288.52	28.5
3289.32	29
3290.12	30
3290.92	31.5
3291.72	34
3292.52	29
3293.32	29.5
3294.12	28.5
3294.92	31
3295.72	32.5
3296.52	32.5
3297.32	31
3298.12	27.5
3298.92	32.5
3299.72	28
3300.52	34
3301.32	30
3302.12	35
3302.92	23.5
3303.71	30
3304.51	30
3305.31	32
3306.11	33
3306.91	27
3307.71	29
3308.5	31
3309.3	36.5
3310.1	31
3310.9	31.5
3311.7	31.5
3312.49	31.5
3313.29	34
3314.09	28.5
3314.89	33
3315.68	34.5
3316.48	30.5
3317.28	29.5
3318.07	30.5
3318.87	31
3319.67	31
3320.46	30
3321.26	33.5
3322.06	29
3322.85	30
3323.65	31
3324.44	27
3325.24	31
3326.04	31
3326.83	31.5
3327.63	31.5
3328.42	32
3329.22	29
3330.01	30
3330.81	27.5
3331.6	34
3332.4	28
3333.19	36
3333.99	32.5
3334.78	31
3335.58	30.5
3336.37	28
3337.17	28
3337.96	29
3338.75	27
3339.55	31
3340.34	31.5
3341.13	30.5
3341.93	30
3342.72	29
3343.51	30
3344.31	28
3345.1	32
3345.89	32
3346.69	30
3347.48	32.5
3348.27	28
3349.06	31.5
3349.86	31
3350.65	31
3351.44	32
3352.23	32
3353.03	33.5
3353.82	34.5
3354.61	30
3355.4	30
3356.19	32
3356.98	27
3357.78	34.5
3358.57	28.5
3359.36	28.5
3360.15	27.5
3360.94	31
3361.73	27
3362.52	31.5
3363.31	33.5
3364.1	31
3364.89	30
3365.68	32
3366.47	31.5
3367.26	28.5
3368.05	28
3368.84	29.5
3369.63	33
3370.42	31
3371.21	32
3372	30.5
3372.79	29.5
3373.58	31.5
3374.37	32
3375.16	26
3375.95	32
3376.73	32.5
3377.52	31.5
3378.31	27
3379.1	29
3379.89	31
3380.68	34.5
3381.46	31
3382.25	29.5
3383.04	29.5
3383.83	26
3384.62	31
3385.4	31
3386.19	33
3386.98	35
3387.76	33
3388.55	32
3389.34	28
3390.13	31
3390.91	29.5
3391.7	29
3392.49	28
3393.27	32
3394.06	30.5
3394.84	31.5
3395.63	32.5
3396.42	30.5
3397.2	29
3397.99	30
3398.77	29
3399.56	26.5
3400.34	30.5
3401.13	29.5
3401.92	30.5
3402.7	31
3403.49	32
3404.27	31
3405.06	32
3405.84	27.5
3406.62	26.5
3407.41	31
3408.19	31
3408.98	31
3409.76	28.5
3410.55	30.5
3411.33	31.5
3412.11	31
3412.9	31
3413.68	28.5
3414.46	31.5
3415.25	29
3416.03	30
3416.81	32
3417.6	28.5
3418.38	31.5
3419.16	26.5
3419.95	31.5
3420.73	27.5
3421.51	29
3422.29	31
3423.08	30
3423.86	30.5
3424.64	29
3425.42	26
3426.2	30
3426.98	29.5
3427.77	27.5
3428.55	34.5
3429.33	27.5
3430.11	31.5
3430.89	29.5
3431.67	34
3432.45	29.5
3433.24	31
3434.02	23.5
3434.8	28.5
3435.58	34
3436.36	28.5
3437.14	29
3437.92	32
3438.7	25
3439.48	34
3440.26	30.5
3441.04	34.5
3441.82	26
3442.6	30.5
3443.38	28.5
3444.16	28
3444.94	31
3445.71	31.5
3446.49	30.5
3447.27	27
3448.05	30.5
3448.83	28.5
3449.61	24
3450.39	28
3451.17	32.5
3451.94	30
3452.72	28.5
3453.5	26.5
3454.28	32
3455.06	27.5
3455.83	26
3456.61	29
3457.39	31
3458.17	32
3458.94	28.5
3459.72	32
3460.5	29
3461.28	29.5
3462.05	29
3462.83	24
3463.61	29
3464.38	27.5
3465.16	34
3465.93	27
3466.71	30
3467.49	27.5
3468.26	33.5
3469.04	28
3469.82	29.5
3470.59	29
3471.37	29
3472.14	26
3472.92	30
3473.69	29
3474.47	33
3475.24	26
3476.02	30
3476.79	29
3477.57	27.5
3478.34	28
3479.12	32
3479.89	27
3480.67	26
3481.44	30
3482.21	32
3482.99	30
3483.76	28
3484.54	32
3485.31	25.5
3486.08	31
3486.86	28
3487.63	31.5
3488.4	28
3489.18	32.5
3489.95	30.5
3490.72	32
3491.5	31
3492.27	30.5
3493.04	29
3493.81	30
3494.59	27
3495.36	28.5
3496.13	28.5
3496.9	30.5
3497.67	28
3498.45	30
3499.22	28
3499.99	32
