#Acq. time (s)=	5
#Accumulations=	5
#Range (cm-¹)=	100...3500
#Windows=	4
#Autofocus=	Off
#AutoExposure=	Off
#Spike filter=	Multiple accum.
#Delay time (s)=	0
#Binning=	1
#Readout mode=	Signal
#DeNoise=	Off
#ICS correction=	Off
#Dark correction=	Off
#Inst. Process=	Off
#Instrument=	LabRAM HR Evol
#Detector=	Syncerity OE
#Objective=	x100_VIS
#Grating=	600 (500nm)
#ND Filter=	25%
#Laser=	633nm_Edge
#Hole=	100.021
#Range=	Visible
#Project=	verificaciones
#Sample=	a4
#Site=	plain
#Title=	bolusa4plain
#Remark=	
#Date=	09.01.2026 14:47
#Acquired=	09.01.2026 14:47:27
100.695	21.5
101.978	28.5
103.262	31
104.545	28
105.829	32.5
107.112	26
108.394	22.5
109.676	27
110.958	29.5
112.24	26.5
113.522	30
114.803	29
116.084	28
117.365	30
118.646	28
119.927	29
121.207	29
122.487	31.5
123.767	26.5
125.047	33.5
126.326	27
127.606	33.5
128.885	27
130.164	35
131.442	30
132.721	31.5
133.999	34
135.277	26.5
136.555	29.5
137.831	32
139.109	25.5
140.386	29.5
141.663	29.5
142.94	31
144.216	35.5
145.493	38.5
146.769	33
148.043	30.5
149.319	34
150.595	36
151.87	35.5
153.145	32
154.42	33.5
155.693	33
156.968	32
158.242	33.5
159.516	35
160.79	33
162.062	35.5
163.336	34
164.609	38.5
165.882	37
167.153	37
168.426	38
169.699	34
170.971	31.5
172.241	34.5
173.513	37.5
174.785	35
176.055	36.5
177.326	36
178.597	36
179.866	37.5
181.137	36.5
182.407	34.5
183.676	33
184.946	28
186.216	37.5
187.484	34
188.753	38
190.022	35.5
191.29	32.5
192.558	31
193.825	36
195.094	34.5
196.36	36.5
197.628	34
198.896	38
200.162	38.5
201.429	34
202.695	34
203.962	35
205.227	34
206.493	30
207.758	33.5
209.024	31
210.289	27
211.554	34.5
212.818	30.5
214.083	31.5
215.347	35.5
216.612	33
217.875	32
219.138	32.5
220.402	34
221.665	30.5
222.928	31.5
224.19	33
225.454	32.5
226.715	30
227.977	29
229.24	33
230.501	28
231.762	34
233.024	31
234.284	28.5
235.546	30
236.806	31.5
238.066	29
239.327	28
240.587	29.5
241.846	30
243.105	27
244.365	29
245.624	31.5
246.882	30
248.142	25
249.4	29
250.658	26
251.916	29
253.174	28
254.432	25
255.689	29.5
256.945	32.5
258.202	30
259.46	25.5
260.716	27
261.972	28
263.228	28
264.483	25.5
265.74	30
266.996	30.5
268.251	26.5
269.505	28
270.76	29
272.014	27.5
273.268	28
274.522	26.5
275.778	29
277.031	22
278.285	25
279.538	29.5
280.791	30
282.043	28.5
283.296	29.5
284.548	24
285.8	28
287.052	27.5
288.304	26
289.556	30
290.807	25
292.058	30.5
293.309	28
294.56	26.5
295.81	30.5
297.061	27
298.311	31
299.561	26
300.81	29
302.06	30.5
303.309	26
304.558	26.5
305.807	28
307.056	28
308.305	19
309.551	28
310.8	26
312.047	26
313.295	30.5
314.543	29
315.79	22.5
317.037	26
318.284	32
319.529	29
320.776	27
322.022	31
323.268	27
324.514	30
325.758	24.5
327.004	25.5
328.249	28.5
329.494	25.5
330.739	27.5
331.982	28.5
333.227	30
334.471	27
335.715	26.5
336.958	27
338.201	30.5
339.445	27
340.687	25
341.93	27
343.173	27
344.414	28
345.657	24
346.899	29
348.14	26.5
349.381	27.5
350.623	25.5
351.863	26.5
353.104	25.5
354.346	27
355.585	24.5
356.826	29
358.065	28.5
359.305	33.5
360.545	25
361.784	26.5
363.023	24
364.261	26
365.501	27.5
366.738	27
367.977	28.5
369.216	29
370.453	27
371.691	28.5
372.928	30
374.166	27.5
375.402	28
376.64	25.5
377.876	27
379.111	25.5
380.348	29
381.584	30.5
382.82	26
384.055	29
385.291	28.5
386.526	25
387.76	26.5
388.996	23.5
390.229	26
391.465	28
392.698	29
393.931	28
395.166	28.5
396.399	25.5
397.632	26
398.866	27.5
400.098	24.5
401.33	29.5
402.563	26.5
403.795	29.5
405.027	31.5
406.259	25.5
407.491	26
408.721	27.5
409.954	27.5
411.184	23.5
412.415	23.5
413.645	28
414.876	26.5
416.106	23
417.335	26.5
418.565	25.5
419.794	25
421.024	32
422.253	26.5
423.482	28
424.71	27.5
425.938	25
427.168	30.5
428.396	25.5
429.623	25
430.851	29
432.078	29
433.305	27.5
434.532	28
435.758	28
436.986	23
438.212	26
439.438	24.5
440.664	27.5
441.89	30
443.115	30
444.34	23
445.566	29.5
446.79	31.5
448.015	28
449.24	29.5
450.464	22
451.688	29
452.912	28.5
454.135	31.5
455.359	26
456.582	33
457.805	28
459.028	28
460.251	30.5
461.473	29.5
462.696	27
463.918	31.5
465.14	30.5
466.36	28.5
467.582	30
468.803	35.5
470.024	30
471.245	33.5
472.466	33
473.686	29
474.907	36
476.126	35
477.346	35.5
478.565	40
479.785	42.5
481.004	40.5
482.224	43
483.441	46
484.66	48
485.879	48.5
487.097	43.5
488.314	52
489.532	50.5
490.75	53
491.967	47
493.184	46.5
494.401	47
495.618	48
496.835	44
498.05	41
499.267	37.5
500.483	34
501.698	41
502.913	37
504.129	35
505.343	36
506.559	35
507.774	31.5
508.987	30.5
510.202	32
511.415	33
512.63	33
513.844	28
515.056	30
516.27	34.5
517.482	30
518.696	34
519.907	32
521.121	31
522.332	28.5
523.545	31
524.757	32.5
525.968	31.5
527.18	28.5
528.39	28.5
529.602	25.5
530.812	30.5
532.023	31.5
533.233	31
534.443	30
535.653	30.5
536.862	27
538.073	30.5
539.281	27.5
540.491	26
541.7	23.5
542.908	27
544.117	27
545.325	31
546.534	26.5
547.741	33
548.949	27
550.157	27
551.364	29.5
552.57	30
553.778	28
554.985	28
556.191	22.5
557.398	28.5
558.604	23
559.809	24.5
561.014	27
562.221	31.5
563.426	30
564.63	33
565.835	27.5
567.041	25
568.245	25
569.449	26
570.653	28
571.856	29
573.061	28
574.264	28
575.467	31.5
576.67	28.5
577.873	31
579.076	29
580.279	23
581.481	25
582.683	31.5
583.884	31
585.086	28.5
586.287	28
587.488	27
588.689	29
589.891	31.5
591.092	26
592.292	28.5
593.492	27.5
594.692	28
595.892	30
597.092	27.5
598.291	27
599.49	28
600.689	25
601.888	26
603.087	27.5
604.285	31
605.483	27
606.681	30.5
607.879	29.5
609.077	28
610.274	29
611.472	27.5
612.668	28
613.865	26
615.061	30
616.258	30
617.454	28.5
618.65	29.5
619.846	26
621.042	24.5
622.238	29
623.432	28
624.627	28
625.822	25
627.017	27.5
628.212	28.5
629.406	27.5
630.599	24.5
631.793	30.5
632.987	28
634.181	29
635.373	29
636.566	29.5
637.76	29.5
638.953	26
640.144	26.5
641.337	33
642.529	27.5
643.721	27
644.912	27
646.104	27
647.295	28.5
648.485	28
649.677	26.5
650.868	29
652.057	27
653.248	25
654.437	24
655.628	30
656.818	26.5
658.006	31
659.196	26
660.384	28
661.574	31
662.763	26
663.951	30.5
665.14	28
666.327	29.5
667.515	31
668.702	30
669.891	27.5
671.077	29.5
672.265	28.5
673.451	26
674.638	28
675.824	33.5
677.011	29
678.197	29
679.383	29.5
680.568	30
681.755	30.5
682.939	29.5
684.124	34.5
685.309	35.5
686.494	31
687.679	32.5
688.863	30.5
690.046	32
691.231	30.5
692.414	32
693.599	35.5
694.781	34
695.964	31
697.148	30
698.33	32
699.512	28.5
700.694	29
701.877	31
703.059	38
704.24	35
705.423	36
706.604	43
707.784	45
708.965	42.5
710.147	43
711.327	40
712.507	37.5
713.687	36.5
714.867	36
716.048	34.5
717.227	27
718.406	30
719.585	30
720.764	29
721.942	30
723.122	33
724.3	30.5
725.478	33
726.656	27
727.834	29
729.011	25
730.189	30.5
731.366	27
732.543	29
733.719	28
734.896	23
736.072	29.5
737.249	29.5
738.426	30
739.602	28
740.777	27
741.953	26.5
743.128	29.5
744.303	27
745.477	30
746.651	27
747.826	27.5
749	26.5
750.174	28
751.348	30
752.522	27.5
753.696	28.5
754.869	26
756.043	29.5
757.216	23
758.389	29
759.561	28.5
760.732	25.5
761.905	28
763.077	28.5
764.249	24.5
765.421	29
766.592	27.5
767.762	26.5
768.934	26.5
770.105	27
771.275	25
772.446	28.5
773.615	28
774.786	28
775.956	29
777.126	29
778.294	32
779.464	29.5
780.633	29
781.801	27.5
782.97	28.5
784.139	32
785.306	30.5
786.475	31
787.643	34
788.81	26
789.978	27.5
791.146	30.5
792.312	31.5
793.479	26
794.647	25
795.812	22.5
796.979	28
798.144	27
799.311	33
800.477	29.5
801.642	30
802.808	26.5
803.972	29.5
805.138	27
806.302	23
807.467	26
808.631	25.5
809.796	30
810.959	27
812.124	26
813.287	25
814.451	29.5
815.614	28
816.777	30.5
817.94	29.5
819.102	31.5
820.265	26
821.427	29
822.59	29
823.751	25
824.912	27.5
826.074	28
827.235	27.5
828.397	25
829.558	22
830.718	27.5
831.879	23
833.039	26
834.199	24.5
835.359	28
836.519	26.5
837.679	26
838.838	26.5
839.998	24
841.156	24.5
842.315	27.5
843.473	24
844.633	24.5
845.791	27.5
846.948	29
848.106	23.5
849.263	24
850.422	28.5
851.579	31
852.736	28.5
853.892	28.5
855.049	24.5
856.205	29
857.363	27.5
858.519	25
859.674	21
860.83	32.5
861.986	26
863.141	30.5
864.296	26.5
865.451	30
866.605	24
867.76	27.5
868.914	26.5
870.069	32.5
871.224	27
872.378	27.5
873.531	22
874.685	28.5
875.838	26
876.991	30
878.144	27
879.296	26.5
880.448	28
881.6	28.5
882.753	26
883.905	27
885.057	25
886.208	28
887.36	27.5
888.511	24
889.662	25
890.813	30.5
891.964	26.5
893.113	24.5
894.264	25.5
895.414	26
896.564	28
897.714	29.5
898.864	25
900.012	29
901.161	29
902.31	27
903.459	26.5
904.607	26
905.756	29
906.904	26
908.052	26.5
909.199	29.5
910.347	23
911.495	24
912.643	28.5
913.789	26
914.936	27.5
916.083	25.5
917.229	22
918.375	23
919.522	24.5
920.667	22
921.813	26.5
922.959	26.5
924.104	28
925.249	25
926.393	31.5
927.539	23.5
928.684	24
929.827	24
930.972	24.5
932.115	28.5
933.26	25
934.403	28.5
935.547	23.5
936.689	24.5
937.833	25.5
938.975	25.5
940.119	28
941.26	22.5
942.404	25.5
943.545	27
944.688	27
945.829	26
946.971	30
948.112	28.5
949.253	26.5
950.394	23
951.535	25
952.676	25
953.816	25
954.956	26
956.097	25
957.236	24
958.377	24
959.516	22.5
960.655	22.5
961.793	27.5
962.933	26
964.071	25.5
965.21	24.5
966.349	25.5
967.487	27.5
968.624	27
969.762	26
970.901	28
972.038	28
973.175	29
974.311	26
975.449	25
976.586	23
977.722	24
978.858	23.5
979.994	26.5
981.131	25
982.267	28
983.402	26
984.537	26
985.672	29
986.807	25
987.942	23
989.076	21
990.211	26.5
991.346	28
992.48	21
993.614	23
994.748	29.5
995.881	25
997.014	25.5
998.148	30
999.28	29.5
1000.41	25
1001.55	21
1002.68	29.5
1003.81	26
1004.94	24
1006.07	28
1007.21	24.5
1008.34	27
1009.47	21
1010.6	31
1011.73	26
1012.86	26
1013.99	24.5
1015.12	25
1016.25	28.5
1017.38	26
1018.51	24.5
1019.64	25
1020.77	26
1021.9	26.5
1023.03	27
1024.16	28.5
1025.29	27
1026.42	27
1027.54	23.5
1028.67	26
1029.8	26
1030.93	27.5
1032.06	25
1033.18	30.5
1034.31	26
1035.44	24
1036.56	22.5
1037.69	28.5
1038.82	22
1039.94	26
1041.07	25.5
1042.2	23.5
1043.32	25
1044.45	26
1045.57	26.5
1046.7	24.5
1047.82	28
1048.95	23.5
1050.07	23
1051.2	23.5
1052.32	26
1053.45	27.5
1054.57	29
1055.69	23
1056.82	25.5
1057.94	23
1059.06	26
1060.19	26.5
1061.31	25
1062.43	25.5
1063.55	26
1064.68	30.5
1065.8	24
1066.92	23
1068.04	28
1069.16	23
1070.28	28
1071.41	24.5
1072.53	28
1073.65	25
1074.77	29
1075.89	27.5
1077.01	25.5
1078.13	28.5
1079.25	26
1080.37	22
1081.49	21
1082.61	27.5
1083.73	23.5
1084.85	23
1085.96	23
1087.08	23.5
1088.2	25.5
1089.32	25
1090.44	24
1091.56	25
1092.67	21
1093.79	23
1094.91	25
1096.03	24.5
1097.14	26.5
1098.26	22
1099.38	25
1100.49	25.5
1101.61	26
1102.73	26.5
1103.84	27
1104.96	24
1106.07	23
1107.19	22.5
1108.3	25.5
1109.42	25.5
1110.53	25.5
1111.65	26
1112.76	22.5
1113.88	27
1114.99	29.5
1116.1	25.5
1117.22	25.5
1118.33	26
1119.44	25.5
1120.56	25.5
1121.67	26
1122.78	22.5
1123.9	24
1125.01	21
1126.12	22.5
1127.23	23.5
1128.34	23
1129.46	25
1130.57	23.5
1131.68	26.5
1132.79	26
1133.9	24.5
1135.01	20.5
1136.12	23
1137.23	27.5
1138.34	29.5
1139.45	27.5
1140.56	25
1141.67	22
1142.78	26.5
1143.89	25
1145	26.5
1146.11	25
1147.22	27.5
1148.33	22
1149.44	23
1150.54	19.5
1151.65	23
1152.76	21.5
1153.87	22.5
1154.97	25
1156.08	23.5
1157.19	26.5
1158.3	24.5
1159.4	27
1160.51	26
1161.62	22.5
1162.72	22
1163.83	21.5
1164.93	25
1166.04	25.5
1167.15	26.5
1168.25	25
1169.36	29.5
1170.46	28
1171.57	23
1172.67	24.5
1173.78	24
1174.88	21.5
1175.98	25.5
1177.09	21.5
1178.19	28
1179.3	22
1180.4	25.5
1181.5	25
1182.61	22.5
1183.71	23
1184.81	24
1185.91	24
1187.02	25
1188.12	25
1189.22	22.5
1190.32	25.5
1191.42	25
1192.53	21
1193.63	27.5
1194.73	25.4761
1195.83	26.9427
1196.93	24.5335
1198.03	25.1175
1199.13	20.7298
1200.23	23.4568
1201.33	23.887
1202.43	25.0072
1203.53	21.3001
1204.63	25.5993
1205.73	27.2035
1206.83	26.6576
1207.93	24.3769
1209.02	26.2605
1210.12	24.9236
1211.22	27.04
1212.32	22.3274
1213.42	25.252
1214.52	25.3582
1215.61	26.2294
1216.71	22.0995
1217.81	24.4236
1218.91	24.3669
1220	21.8385
1221.1	25.1844
1222.2	23.522
1223.29	23.4716
1224.39	24.1612
1225.49	24.9065
1226.58	25.5695
1227.68	24.3428
1228.77	22.9583
1229.87	23.2172
1230.96	24.7902
1232.06	21.6763
1233.15	22.2844
1234.25	26.46
1235.34	24.289
1236.44	23.4754
1237.53	23.8751
1238.63	23.6202
1239.72	22.3184
1240.81	22.1299
1241.91	25.2888
1243	25.2537
1244.09	23.1748
1245.19	23.4271
1246.28	22.4557
1247.37	22.5871
1248.46	19.2023
1249.56	22.4908
1250.65	20.2712
1251.74	25.6973
1252.83	24.7515
1253.92	24.3004
1255.01	26.3714
1256.11	24.8848
1257.2	25.4078
1258.29	22.3911
1259.38	24.9892
1260.47	25.3548
1261.56	26.7467
1262.65	27.1074
1263.74	25.8083
1264.83	24.1142
1265.92	26.3116
1267.01	23.9969
1268.1	22.2976
1269.19	24.0711
1270.27	24.0449
1271.36	24.0445
1272.45	26.1505
1273.54	22.5543
1274.63	23.7403
1275.72	24.099
1276.8	26.9285
1277.89	22.9606
1278.98	23.2591
1280.07	22.1037
1281.15	23.7673
1282.24	24.1092
1283.33	24.0187
1284.41	23.7327
1285.5	25.2231
1286.59	25.479
1287.67	25.4903
1288.76	25.318
1289.84	22.1426
1290.93	25.8008
1292.01	24.8681
1293.1	24.8638
1294.19	25.6831
1295.27	23.7821
1296.35	24.554
1297.44	23.6625
1298.52	24.7121
1299.61	24.7838
1300.69	24.7261
1301.78	22.7692
1302.86	22.4978
1303.94	24.3887
1305.03	22.8287
1306.11	23.4653
1306.4	24
1307.49	26
1308.57	23
1309.66	27
1310.75	21
1311.84	19
1312.92	25.5
1314.01	24.5
1315.1	23
1316.19	23
1317.27	23
1318.36	22.5
1319.45	25
1320.53	24
1321.62	26.5
1322.7	27
1323.79	21.5
1324.88	24.5
1325.96	23
1327.05	25.5
1328.13	23
1329.21	23
1330.3	25
1331.38	25
1332.47	26
1333.55	28.5
1334.64	25.5
1335.72	25
1336.8	23.5
1337.89	23.5
1338.97	24
1340.05	23
1341.14	28
1342.22	24.5
1343.3	24
1344.39	27
1345.47	25
1346.55	23.5
1347.63	23.5
1348.71	24
1349.79	22.5
1350.88	24
1351.96	23
1353.04	21.5
1354.12	22.5
1355.2	24
1356.28	26.5
1357.36	25
1358.44	25.5
1359.52	24
1360.6	21.5
1361.68	24
1362.76	19
1363.84	22
1364.92	24
1366	25
1367.08	21
1368.16	24
1369.23	23.5
1370.31	23.5
1371.39	22.5
1372.47	22
1373.55	28
1374.62	23.5
1375.7	22
1376.78	26.5
1377.85	24.5
1378.93	20.5
1380.01	27.5
1381.09	29
1382.16	26.5
1383.24	26
1384.31	25.5
1385.39	24.5
1386.47	28
1387.54	29.5
1388.62	25.5
1389.69	23.5
1390.77	23
1391.84	26.5
1392.92	24
1393.99	24
1395.06	21
1396.14	31.5
1397.21	26
1398.29	26.5
1399.36	30.5
1400.43	24.5
1401.51	27
1402.58	30.5
1403.65	29
1404.73	28.5
1405.8	22.5
1406.87	28
1407.94	26
1409.02	29
1410.09	29
1411.16	29
1412.23	29
1413.3	32
1414.37	25.5
1415.45	27
1416.52	26.5
1417.59	30.5
1418.66	30
1419.73	27
1420.8	29.5
1421.87	27.5
1422.94	26
1424.01	26.5
1425.08	23
1426.15	28.5
1427.22	25
1428.29	26.5
1429.35	28.5
1430.42	24
1431.49	26
1432.56	23
1433.63	24.5
1434.7	26.5
1435.77	29.5
1436.83	27.5
1437.9	24
1438.97	26
1440.04	26.5
1441.1	23.5
1442.17	27
1443.24	25.5
1444.3	27
1445.37	25
1446.44	24
1447.5	23.5
1448.57	23
1449.63	23.5
1450.7	24
1451.76	29
1452.83	22.5
1453.89	25
1454.96	28.5
1456.02	21
1457.09	26
1458.15	24.5
1459.22	27.5
1460.28	28
1461.34	25.5
1462.41	28
1463.47	28.5
1464.54	25
1465.6	27
1466.66	25
1467.72	24
1468.79	25
1469.85	24
1470.91	26.5
1471.97	26
1473.04	25.5
1474.1	23
1475.16	26.5
1476.22	25
1477.28	27
1478.34	24.5
1479.4	20.5
1480.47	25
1481.53	26
1482.59	28.5
1483.65	24.5
1484.71	27
1485.77	29.5
1486.83	23
1487.89	27
1488.95	29
1490.01	25
1491.07	28.5
1492.12	27
1493.18	24
1494.24	27
1495.3	25
1496.36	27.5
1497.42	23
1498.47	25
1499.53	26.5
1500.59	24
1501.65	22
1502.7	27.5
1503.76	22
1504.82	23
1505.88	21
1506.93	24
1507.99	23
1509.05	23.5
1510.1	25
1511.16	26.5
1512.21	22.5
1513.27	25
1514.32	28
1515.38	26
1516.43	22.5
1517.49	25
1518.54	29.5
1519.6	24
1520.65	25
1521.71	26.5
1522.76	25
1523.82	24.5
1524.87	24
1525.92	23.5
1526.98	26
1528.03	27.5
1529.08	26
1530.14	24.5
1531.19	30.5
1532.24	23
1533.3	27.5
1534.35	23
1535.4	25.5
1536.45	25.5
1537.5	24
1538.56	27.5
1539.61	24
1540.66	27
1541.71	22.5
1542.76	28
1543.81	26.5
1544.86	27.5
1545.91	25
1546.96	22
1548.01	26
1549.06	23
1550.11	21
1551.16	26
1552.21	26
1553.26	23
1554.31	24.5
1555.36	24.5
1556.41	22.5
1557.46	28.5
1558.51	27
1559.55	21
1560.6	26
1561.65	25.5
1562.7	26.5
1563.75	23.5
1564.79	26
1565.84	26.5
1566.89	25
1567.94	27.5
1568.98	27.5
1570.03	25
1571.07	24
1572.12	24.5
1573.17	25.5
1574.21	24
1575.26	27
1576.31	25
1577.35	27.5
1578.4	23
1579.44	25
1580.49	23
1581.53	29
1582.58	28
1583.62	20
1584.67	23
1585.71	25
1586.75	24.5
1587.8	23.5
1588.84	28.5
1589.89	27
1590.93	26
1591.97	22
1593.02	25
1594.06	22.5
1595.1	26
1596.14	26.5
1597.19	30
1598.23	23.5
1599.27	24.5
1600.31	25
1601.35	26.5
1602.4	24
1603.44	27.5
1604.48	25
1605.52	23.5
1606.56	22
1607.6	23.5
1608.64	27.5
1609.68	29
1610.72	25.5
1611.76	27
1612.8	27.5
1613.84	24
1614.88	26.5
1615.92	26.5
1616.96	25
1618	28
1619.04	29.5
1620.08	24
1621.12	25
1622.16	23
1623.19	27
1624.23	22
1625.27	24
1626.31	28
1627.35	24
1628.38	25.5
1629.42	26.5
1630.46	25.5
1631.5	25.5
1632.53	22
1633.57	23
1634.61	24.5
1635.64	26
1636.68	24
1637.71	27
1638.75	21
1639.79	27.5
1640.82	22.5
1641.86	26
1642.89	26.5
1643.93	29.5
1644.96	24
1646	29
1647.03	22.5
1648.07	24.5
1649.1	28
1650.14	26.5
1651.17	30
1652.2	26
1653.24	25
1654.27	27.5
1655.3	21
1656.34	26
1657.37	28
1658.4	28.5
1659.44	24.5
1660.47	25
1661.5	19
1662.53	25.5
1663.57	26
1664.6	24.5
1665.63	28.5
1666.66	25
1667.69	31.5
1668.72	23
1669.75	22
1670.79	24
1671.82	24.5
1672.85	27.5
1673.88	24.5
1674.91	21
1675.94	28
1676.97	21
1678	25
1679.03	21.5
1680.06	24.5
1681.09	18.5
1682.11	27.5
1683.14	25
1684.17	26.5
1685.2	25
1686.23	25
1687.26	23.5
1688.29	22.5
1689.32	24.5
1690.34	24.5
1691.37	29
1692.4	24.5
1693.43	28.5
1694.45	25.5
1695.48	25
1696.51	21
1697.53	25.5
1698.56	25.5
1699.59	25.5
1700.61	24
1701.64	29
1702.66	24
1703.69	26
1704.72	20
1705.74	23
1706.77	19
1707.79	28.5
1708.82	21.5
1709.84	25.5
1710.87	28
1711.89	24
1712.92	22
1713.94	26
1714.96	26.5
1715.99	27
1717.01	24
1718.04	28.5
1719.06	22
1720.08	26.5
1721.11	26.5
1722.13	26
1723.15	22
1724.17	24
1725.2	27
1726.22	28
1727.24	28
1728.26	26.5
1729.28	23
1730.31	24
1731.33	26
1732.35	24
1733.37	26
1734.39	25
1735.41	25.5
1736.43	20.5
1737.45	25.5
1738.47	24.5
1739.49	25
1740.51	24.5
1741.53	27
1742.55	22
1743.57	28
1744.59	25
1745.61	24
1746.63	27
1747.65	25
1748.67	24.5
1749.69	26.5
1750.71	26
1751.72	20
1752.74	29.5
1753.76	17.5
1754.78	25.5
1755.8	22.5
1756.81	23
1757.83	27
1758.85	24
1759.86	22.5
1760.88	24
1761.9	21
1762.91	26
1763.93	25.5
1764.95	25
1765.96	24
1766.98	21.5
1768	25.5
1769.01	26
1770.03	24.5
1771.04	24.5
1772.06	26
1773.07	25
1774.09	27
1775.1	29
1776.12	26.5
1777.13	26
1778.14	25
1779.16	27
1780.17	23.5
1781.19	25
1782.2	23.5
1783.21	27
1784.23	22
1785.24	25
1786.25	24.5
1787.27	24
1788.28	21.5
1789.29	23.5
1790.3	23.5
1791.32	26.5
1792.33	24.5
1793.34	25
1794.35	26
1795.36	24.5
1796.37	27.5
1797.38	24
1798.4	28
1799.41	24
1800.42	24
1801.43	25
1802.44	22.5
1803.45	23
1804.46	26
1805.47	23
1806.48	25
1807.49	22
1808.5	26.5
1809.51	26.5
1810.52	27
1811.53	28
1812.53	23.5
1813.54	27.5
1814.55	27
1815.56	21
1816.57	26
1817.58	25
1818.58	25.5
1819.59	23
1820.6	19
1821.61	24.5
1822.61	26
1823.62	26
1824.63	25.5
1825.64	25.5
1826.64	25
1827.65	27
1828.66	26
1829.66	25.5
1830.67	26.5
1831.67	24
1832.68	22.5
1833.68	26.5
1834.69	18.5
1835.7	22.5
1836.7	23.5
1837.71	21
1838.71	28.5
1839.71	26
1840.72	22
1841.72	24
1842.73	24.5
1843.73	24
1844.74	26
1845.74	30.5
1846.74	22.5
1847.75	24
1848.75	24
1849.75	27
1850.76	25
1851.76	23
1852.76	23
1853.76	27
1854.77	27
1855.77	23
1856.77	27.5
1857.77	23
1858.77	28.5
1859.78	24.5
1860.78	23
1861.78	28.5
1862.78	24
1863.78	24
1864.78	28.5
1865.78	27
1866.78	21
1867.78	28.5
1868.78	25
1869.78	20.5
1870.78	29
1871.78	24.5
1872.78	24
1873.78	25.5
1874.78	24.5
1875.78	27
1876.78	23.5
1877.78	26.5
1878.78	27.5
1879.77	20
1880.77	26.5
1881.77	25
1882.77	23
1883.77	25
1884.76	20.5
1885.76	27
1886.76	25.5
1887.76	26
1888.75	24.5
1889.75	25.5
1890.75	25
1891.74	22.5
1892.74	22
1893.74	21
1894.73	28.5
1895.73	22.5
1896.72	24
1897.72	22.5
1898.72	25
1899.71	19
1900.71	22
1901.7	22
1902.7	24
1903.69	23
1904.69	23
1905.68	25.5
1906.67	27.5
1907.67	22
1908.66	28
1909.66	25
1910.65	25.5
1911.64	22
1912.64	20.5
1913.63	26
1914.62	25.5
1915.62	19.5
1916.61	29
1917.6	27.5
1918.59	27
1919.59	26.5
1920.58	26
1921.57	22.5
1922.56	25
1923.55	22
1924.55	25
1925.54	25.5
1926.53	22.5
1927.52	21
1928.51	28
1929.5	25
1930.49	28.5
1931.48	27
1932.47	24
1933.46	25.5
1934.45	24
1935.44	25
1936.43	24.5
1937.42	23.5
1938.41	25
1939.4	22
1940.39	21.5
1941.38	24
1942.37	26.5
1943.36	24.5
1944.34	22.5
1945.33	26.5
1946.32	24.5
1947.31	24.5
1948.3	25.75
1949.28	26.5
1950.27	22
1951.26	24.5
1952.25	26.5
1953.23	26.5
1954.22	24
1955.21	24
1956.2	22.5
1957.18	23.5
1958.17	27.5
1959.15	23.5
1960.14	22.5
1961.13	23.5
1962.11	22.5
1963.1	25
1964.08	22.5
1965.07	21
1966.05	23
1967.04	27
1968.02	24
1969.01	25.5
1969.99	25.5
1970.98	21
1971.96	21
1972.94	26
1973.93	22
1974.91	24.5
1975.9	28.5
1976.88	24
1977.86	19.5
1978.85	29
1979.83	24.5
1980.81	25
1981.8	22.5
1982.78	23
1983.76	23
1984.74	26.5
1985.72	28
1986.71	26
1987.69	27.5
1988.67	24.5
1989.65	25
1990.63	24
1991.61	27
1992.6	25.5
1993.58	25.5
1994.56	23
1995.54	23.5
1996.52	22.5
1997.5	23
1998.48	24.5
1999.46	22.5
2000.44	24
2001.42	25
2002.4	28
2003.38	26.5
2004.36	25
2005.34	26
2006.32	26
2007.29	25.5
2008.27	24
2009.25	24.5
2010.23	27
2011.21	23
2012.19	25.5
2013.16	27.5
2014.14	24
2015.12	23
2016.1	23
2017.07	24.5
2018.05	18
2019.03	26.5
2020	22.5
2020.98	27
2021.96	26
2022.93	21
2023.91	26.5
2024.89	21.5
2025.86	21.5
2026.84	22
2027.81	22.5
2028.79	25
2029.77	21.5
2030.74	22.5
2031.72	22.5
2032.69	21
2033.67	25.5
2034.64	25.5
2035.61	25
2036.59	24.5
2037.56	23.5
2038.54	25
2039.51	26
2040.48	24.5
2041.46	26
2042.43	24.5
2043.41	23
2044.38	21.5
2045.35	24.5
2046.32	23
2047.3	24
2048.27	23.5
2049.24	25
2050.21	23
2051.19	22.5
2052.16	26
2053.13	27.5
2054.1	24.5
2055.07	19
2056.04	25.5
2057.02	21
2057.99	24
2058.96	21
2059.93	25
2060.9	22.5
2061.87	23
2062.84	25
2063.81	24.5
2064.78	21.5
2065.75	21
2066.72	21
2067.69	24.5
2068.66	26
2069.63	25
2070.6	27
2071.57	23
2072.53	22.5
2073.5	25.5
2074.47	27
2075.44	22
2076.41	26.5
2077.38	23.5
2078.34	22.5
2079.31	26.5
2080.28	26.5
2081.25	21.5
2082.21	23.5
2083.18	25
2084.15	25
2085.12	21.5
2086.08	21
2087.05	24.5
2088.02	26.5
2088.98	22
2089.95	23.5
2090.91	24
2091.88	25
2092.85	20.5
2093.81	24
2094.78	27.5
2095.74	19
2096.71	21.5
2097.67	26
2098.64	21
2099.6	25
2100.57	21
2101.53	24
2102.5	25
2103.46	21
2104.42	24
2105.39	20
2106.35	20.5
2107.31	20
2108.28	23.5
2109.24	21
2110.2	23
2111.17	21
2112.13	19
2113.09	24.5
2114.06	24
2115.02	23
2115.98	25
2116.94	24.5
2117.9	23
2118.86	27.5
2119.83	26.5
2120.79	25
2121.75	27
2122.71	27
2123.67	23
2124.63	24.5
2125.59	23
2126.55	22.5
2127.51	21
2128.48	21.5
2129.43	23
2130.4	24
2131.35	26
2132.31	22
2133.27	22.5
2134.23	22
2135.19	28
2136.15	22.5
2137.11	25
2138.07	25
2139.03	24
2139.99	21.5
2140.95	20
2141.9	22
2142.86	26.4783
2143.82	22.451
2144.78	16.1805
2145.74	23.5291
2146.69	24.4225
2147.65	22.8354
2148.61	21.9541
2149.56	25.2257
2150.52	22.8458
2151.48	21.0935
2152.44	22.0367
2153.39	21.304
2154.35	20.6673
2155.3	21.6091
2156.26	20.2415
2157.22	26.0212
2158.17	23.5372
2159.13	23.2341
2160.08	25.1408
2161.04	21.7022
2161.99	19.8819
2162.95	21.3131
2163.9	22.5591
2164.86	25.017
2165.81	22.0571
2166.77	22.7915
2167.72	23.1859
2168.68	23.0665
2169.63	22.2318
2170.58	26.0366
2171.54	22.7179
2172.49	21.5479
2173.44	24.3924
2174.4	23.9402
2175.35	21.203
2176.3	21.1188
2177.26	21.0576
2178.21	20.9717
2179.16	21.0859
2180.11	23.0182
2181.07	23.7199
2182.02	23.5507
2182.97	24.656
2183.92	24.1006
2184.88	22.3872
2185.83	22.4665
2186.78	23.0495
2187.73	20.0555
2188.68	16.9493
2189.63	22.7665
2190.58	22.7014
2191.53	24.25
2192.48	22.7343
2193.43	21.7241
2194.38	23.5316
2195.33	21.3902
2196.28	22.3162
2197.23	21.7209
2198.18	22.3641
2199.13	20.6625
2200.08	24.3786
2201.03	21.6401
2201.98	25.0699
2202.93	21.8853
2203.88	20.7354
2204.83	22.2397
2205.78	23.2294
2206.72	21.3298
2207.67	23.775
2208.62	25.4681
2209.57	21.7915
2210.52	20.0403
2211.46	24.2676
2212.41	22.0062
2213.36	22.9523
2214.31	21.8832
2215.25	20.607
2216.2	21.895
2217.15	23.2613
2218.09	22.8476
2219.04	23.3949
2219.99	21.5756
2220.93	22.9151
2221.88	21.0507
2222.83	24.1388
2223.77	26.1583
2224.72	21.5632
2225.66	19.6113
2226.61	23.7496
2227.55	22.9599
2228.5	24.4744
2229.44	22.69
2230.39	19.5755
2231.33	22.0925
2232.28	21.9984
2233.22	23.0131
2234.17	22.3025
2235.11	20.1678
2236.05	22.3385
2237	23.034
2237.94	20.6468
2238.88	23.4919
2239.83	23.7072
2240.04	23.5
2240.98	19.5
2241.93	21
2242.88	22.5
2243.83	23
2244.78	23
2245.72	25
2246.67	22.5
2247.62	21
2248.56	25
2249.51	23.5
2250.46	19.5
2251.4	21.5
2252.35	25.5
2253.3	24.5
2254.24	24
2255.19	25
2256.14	19
2257.08	25.5
2258.03	23.5
2258.97	21.5
2259.92	22
2260.86	24
2261.81	20.5
2262.75	24
2263.7	21
2264.64	24
2265.59	22
2266.53	22
2267.48	22.5
2268.42	25
2269.36	25.5
2270.31	24.5
2271.25	21.5
2272.19	22.5
2273.14	25.5
2274.08	24
2275.02	22
2275.97	24
2276.91	19.5
2277.85	23.5
2278.8	21.5
2279.74	20
2280.68	22
2281.62	23
2282.56	22.5
2283.51	22.5
2284.45	23
2285.39	22
2286.33	20
2287.27	19.5
2288.21	23.5
2289.15	21
2290.09	18.5
2291.04	23.5
2291.98	20
2292.92	24.5
2293.86	23.5
2294.8	25.5
2295.74	18
2296.68	21.5
2297.62	25
2298.56	25
2299.5	23.5
2300.44	24
2301.37	19
2302.31	20.5
2303.25	23
2304.19	21
2305.13	19
2306.07	24
2307.01	24.5
2307.94	25
2308.88	22.5
2309.82	22
2310.76	21.5
2311.7	23.5
2312.63	26
2313.57	22.5
2314.51	21
2315.44	23.5
2316.38	24
2317.32	19
2318.26	24.5
2319.19	23
2320.13	23
2321.06	22
2322	25.5
2322.94	22
2323.87	23
2324.81	23
2325.74	20
2326.68	23
2327.61	23
2328.55	21.5
2329.48	23.5
2330.42	23
2331.35	24
2332.29	23
2333.22	22.5
2334.16	23
2335.09	23
2336.02	22
2336.96	23
2337.89	22.5
2338.83	24
2339.76	27.5
2340.69	25
2341.63	21.5
2342.56	22
2343.49	28
2344.42	19
2345.36	24.5
2346.29	22
2347.22	24
2348.15	24.5
2349.09	24
2350.02	25
2350.95	21.5
2351.88	25
2352.81	23
2353.74	21.5
2354.68	22
2355.61	19.5
2356.54	24
2357.47	22.5
2358.4	25
2359.33	21
2360.26	20
2361.19	23
2362.12	26.5
2363.05	23
2363.98	21
2364.91	24
2365.84	22
2366.77	28
2367.7	24.5
2368.63	24
2369.56	18.5
2370.49	26
2371.41	21.5
2372.34	22.5
2373.27	21
2374.2	20
2375.13	19
2376.06	23
2376.98	24.5
2377.91	26.5
2378.84	19.5
2379.77	23.5
2380.69	21.5
2381.62	25
2382.55	23
2383.47	25.5
2384.4	20
2385.33	22.5
2386.25	23
2387.18	23
2388.11	23.5
2389.03	20.5
2389.96	26
2390.89	20
2391.81	22
2392.74	24.5
2393.66	22
2394.59	26
2395.51	20
2396.44	23
2397.36	20
2398.29	23
2399.21	24
2400.14	21.5
2401.06	24
2401.99	21
2402.91	23
2403.83	24
2404.76	24
2405.68	23.5
2406.6	22.5
2407.53	22.5
2408.45	21.5
2409.37	23.5
2410.3	24.5
2411.22	28
2412.14	22.5
2413.06	25
2413.99	23
2414.91	23
2415.83	22.5
2416.75	23.5
2417.68	24.5
2418.6	21.5
2419.52	27
2420.44	21
2421.36	24
2422.28	19.5
2423.2	24
2424.12	24
2425.05	25
2425.97	25.5
2426.89	24
2427.81	24
2428.73	20
2429.65	22
2430.57	21
2431.49	26
2432.41	27.5
2433.33	26
2434.25	25
2435.17	28
2436.08	24
2437	28.5
2437.92	24
2438.84	24.5
2439.76	25
2440.68	20.5
2441.6	23
2442.51	24
2443.43	23
2444.35	21.5
2445.27	21.5
2446.19	27.5
2447.1	17
2448.02	22
2448.94	24
2449.85	24
2450.77	23
2451.69	27
2452.61	26.5
2453.52	24
2454.44	25
2455.35	22.5
2456.27	20
2457.19	20
2458.1	23.5
2459.02	28
2459.94	25.5
2460.85	24.5
2461.77	22.5
2462.68	24
2463.6	24
2464.51	23.5
2465.43	23
2466.34	24
2467.25	23.5
2468.17	24
2469.08	24
2470	19.5
2470.91	25
2471.83	23.5
2472.74	23
2473.65	28
2474.57	26.5
2475.48	25.5
2476.39	23.5
2477.31	18
2478.22	23
2479.13	24
2480.04	22.5
2480.96	25.5
2481.87	24.5
2482.78	20.5
2483.69	24
2484.6	25
2485.52	23.5
2486.43	22
2487.34	26
2488.25	20.5
2489.16	23
2490.07	22
2490.99	28
2491.9	26
2492.81	25
2493.72	26.5
2494.63	28
2495.54	23.5
2496.45	26
2497.36	23
2498.27	23
2499.18	25.5
2500.09	25
2501	26
2501.91	21.5
2502.82	23.5
2503.73	28
2504.63	24
2505.54	25.5
2506.45	25
2507.36	24.5
2508.27	20.5
2509.18	23
2510.09	25
2510.99	23.5
2511.9	26.5
2512.81	23
2513.72	27
2514.62	26
2515.53	18
2516.44	25.5
2517.35	23.5
2518.25	20
2519.16	21.5
2520.07	26.5
2520.97	24.5
2521.88	19.5
2522.79	24
2523.69	21
2524.6	25
2525.51	19
2526.41	24
2527.32	24
2528.22	23
2529.13	25.5
2530.03	24
2530.94	22.5
2531.84	25
2532.75	27
2533.65	27
2534.56	26.5
2535.46	25.5
2536.37	28
2537.27	22
2538.17	23.5
2539.08	22
2539.98	24
2540.89	25
2541.79	21.5
2542.69	24
2543.6	26
2544.5	25
2545.4	23
2546.31	26
2547.21	20.5
2548.11	26
2549.01	23
2549.92	23
2550.82	21
2551.72	22
2552.62	24
2553.52	25
2554.42	20
2555.33	22
2556.23	24.5
2557.13	25.5
2558.03	27.5
2558.93	25.5
2559.83	24
2560.73	29.5
2561.63	29.5
2562.53	25
2563.43	25
2564.33	25
2565.24	25
2566.13	21
2567.04	23.5
2567.93	25.5
2568.83	23
2569.73	24.5
2570.63	21.5
2571.53	28.5
2572.43	19
2573.33	20
2574.23	24.5
2575.13	23.5
2576.03	25
2576.92	28
2577.82	24
2578.72	24
2579.62	22.5
2580.52	26
2581.41	22.5
2582.31	21.5
2583.21	29.5
2584.11	24
2585	25.5
2585.9	22
2586.8	22.5
2587.69	26
2588.59	24
2589.49	23.5
2590.38	21.5
2591.28	24.5
2592.18	21.5
2593.07	23.5
2593.97	25.5
2594.86	22
2595.76	23
2596.66	28
2597.55	26.5
2598.45	27
2599.34	27.5
2600.24	22.5
2601.13	21
2602.03	22
2602.92	29
2603.81	27
2604.71	25
2605.6	27.5
2606.5	24
2607.39	21.5
2608.28	26
2609.18	22
2610.07	23.5
2610.97	26
2611.86	22
2612.75	25.5
2613.64	24
2614.54	24.5
2615.43	25.5
2616.32	26.5
2617.22	20
2618.11	25
2619	25.5
2619.89	26
2620.78	29
2621.68	21.5
2622.57	26
2623.46	21
2624.35	21
2625.24	25
2626.13	22
2627.02	26.5
2627.91	23.5
2628.81	24.5
2629.7	22
2630.59	26
2631.48	24
2632.37	24.5
2633.26	22
2634.15	26.5
2635.04	22.5
2635.93	22.5
2636.82	24.5
2637.71	25.5
2638.59	23
2639.48	26.5
2640.37	19
2641.26	27
2642.15	27.5
2643.04	21
2643.93	26
2644.82	25
2645.71	24.5
2646.59	21.5
2647.48	29
2648.37	19
2649.26	24
2650.15	24.5
2651.03	27
2651.92	23
2652.81	21.5
2653.69	26
2654.58	24
2655.47	25.5
2656.35	22
2657.24	24
2658.13	27
2659.01	25
2659.9	24
2660.79	24
2661.67	25
2662.56	23.5
2663.44	22.5
2664.33	23
2665.22	28
2666.1	24.5
2666.99	26
2667.87	26
2668.76	23
2669.64	27
2670.52	23.5
2671.41	25.5
2672.29	22.5
2673.18	23.5
2674.06	21
2674.95	25
2675.83	24
2676.71	24.5
2677.6	23
2678.48	22
2679.36	27.5
2680.25	25
2681.13	25
2682.01	23.5
2682.9	23.5
2683.78	22
2684.66	19.5
2685.55	26
2686.43	23.5
2687.31	25.5
2688.19	25
2689.07	24.5
2689.96	23
2690.84	23
2691.72	23.5
2692.6	25
2693.48	21
2694.36	22.5
2695.24	22.5
2696.12	21.5
2697	25
2697.89	20
2698.77	24
2699.65	23.5
2700.53	24
2701.41	25
2702.29	29
2703.17	23
2704.05	23
2704.93	27
2705.81	23.5
2706.69	27.5
2707.57	21.5
2708.44	24
2709.32	22.5
2710.2	25
2711.08	22
2711.96	26.5
2712.84	26
2713.72	23
2714.59	23
2715.47	27
2716.35	24.5
2717.23	24
2718.11	24.5
2718.98	24
2719.86	25
2720.74	25.5
2721.62	21
2722.49	23
2723.37	22.5
2724.25	22
2725.12	23.5
2726	23
2726.88	25
2727.75	24
2728.63	24.5
2729.51	24.5
2730.38	27.5
2731.26	24
2732.13	22
2733.01	25.5
2733.88	27
2734.76	26
2735.63	22.5
2736.51	25
2737.38	24.5
2738.26	22.5
2739.13	21
2740.01	22
2740.88	24
2741.76	21
2742.63	23.5
2743.5	23
2744.38	23
2745.25	23
2746.13	27
2747	22.5
2747.87	19
2748.75	28
2749.62	24.5
2750.49	21.5
2751.36	24
2752.24	22
2753.11	22.5
2753.98	23
2754.86	24
2755.73	24
2756.6	23.5
2757.47	23.5
2758.34	24.5
2759.22	26.5
2760.09	24.5
2760.96	20.5
2761.83	25
2762.7	23
2763.57	25
2764.44	21.5
2765.31	28.5
2766.18	26.5
2767.06	27
2767.93	24
2768.8	23
2769.67	21
2770.54	25.5
2771.41	27
2772.28	25.5
2773.15	27
2774.02	23.5
2774.89	23.5
2775.75	22
2776.62	27
2777.49	27
2778.36	27.5
2779.23	21
2780.1	24
2780.97	23.5
2781.84	29
2782.71	23
2783.57	27.5
2784.44	25.5
2785.31	25.5
2786.18	23
2787.04	23
2787.91	26
2788.78	24.5
2789.65	25.5
2790.51	25
2791.38	21
2792.25	25
2793.12	18.5
2793.98	27.5
2794.85	26.5
2795.72	23.5
2796.58	23.5
2797.45	24
2798.31	25.5
2799.18	22.5
2800.05	25.5
2800.91	25.75
2801.78	26
2802.64	25.5
2803.51	23.5
2804.37	28
2805.24	25.5
2806.1	25.5
2806.97	27
2807.83	26.5
2808.7	26
2809.56	27
2810.43	23.5
2811.29	29
2812.15	26.5
2813.02	25
2813.88	24
2814.75	25.5
2815.61	19
2816.47	22
2817.34	23
2818.2	20.5
2819.06	27
2819.92	24.5
2820.79	25
2821.65	22.5
2822.51	28.5
2823.37	22.5
2824.24	22
2825.1	25
2825.96	26.5
2826.82	24.5
2827.69	22.5
2828.55	27
2829.41	21
2830.27	23
2831.13	25
2831.99	25
2832.85	22.5
2833.71	22
2834.58	26.5
2835.44	24.5
2836.3	23
2837.16	25
2838.02	22
2838.88	23.5
2839.74	25.5
2840.6	23.5
2841.46	24
2842.32	26.5
2843.18	27
2844.04	23
2844.9	25.5
2845.75	21
2846.61	17.5
2847.47	26.5
2848.33	27.5
2849.19	26.5
2850.05	27
2850.91	24.5
2851.77	24
2852.62	24
2853.48	32.5
2854.34	25.5
2855.2	23.5
2856.06	22
2856.91	24
2857.77	27.5
2858.63	23.5
2859.48	29
2860.34	24.5
2861.2	24.5
2862.06	24
2862.91	25
2863.77	23
2864.63	24.5
2865.48	25
2866.34	26
2867.19	23.5
2868.05	24
2868.91	27
2869.76	25
2870.62	29
2871.47	23
2872.33	27.5
2873.18	27.5
2874.04	24.5
2874.89	25.5
2875.75	27
2876.6	28
2877.46	24
2878.31	33
2879.17	27.5
2880.02	27.5
2880.88	28.5
2881.73	29
2882.58	30.5
2883.44	32.5
2884.29	29
2885.14	33.5
2886	30
2886.85	30.5
2887.7	30
2888.56	30.5
2889.41	34
2890.26	33
2891.12	35.5
2891.97	31.5
2892.82	34
2893.67	37
2894.52	37
2895.38	37.5
2896.23	39
2897.08	45.5
2897.93	40.5
2898.78	43
2899.64	50.5
2900.49	51
2901.34	49
2902.19	51.5
2903.04	56
2903.89	54
2904.74	56
2905.59	54
2906.44	57.5
2907.29	55.5
2908.14	58
2908.99	56.5
2909.84	53
2910.69	48
2911.54	52
2912.39	49
2913.24	47.5
2914.09	46.5
2914.94	40
2915.79	40.5
2916.64	36.5
2917.49	41
2918.34	40.5
2919.18	32.5
2920.03	37
2920.88	38.5
2921.73	37
2922.58	26
2923.42	30
2924.27	31
2925.12	30
2925.97	29
2926.82	31.5
2927.66	24
2928.51	26.5
2929.36	30
2930.2	28.5
2931.05	25
2931.9	26
2932.74	28.5
2933.59	22
2934.44	27
2935.28	27.5
2936.13	26
2936.98	28
2937.82	26.5
2938.67	28
2939.51	22.5
2940.36	24.5
2941.2	26
2942.05	24
2942.9	28.5
2943.74	28
2944.58	24.5
2945.43	29
2946.27	25
2947.12	26.5
2947.96	27.5
2948.81	30.5
2949.65	25
2950.5	29.5
2951.34	28.5
2952.18	32.5
2953.03	31
2953.87	28.5
2954.71	28
2955.56	34
2956.4	30
2957.24	30
2958.09	29
2958.93	32
2959.77	35
2960.62	37
2961.46	38
2962.3	37.5
2963.14	40
2963.98	34.5
2964.83	36
2965.67	34
2966.51	34.5
2967.35	38.5
2968.19	38.5
2969.04	41
2969.88	39
2970.72	35
2971.56	30.0097
2972.4	32.9554
2973.24	33.4924
2974.08	35.3385
2974.92	29.947
2975.76	31.3398
2976.6	27.2459
2977.44	29.0087
2978.28	32.791
2979.12	29.4579
2979.96	25.3172
2980.8	25.693
2981.64	27.1601
2982.48	26.5568
2983.32	25.8076
2984.16	27.7744
2985	25.6228
2985.84	24.7011
2986.68	26.2252
2987.52	26.1037
2988.35	26.6912
2989.19	23.1555
2990.03	26.9075
2990.87	25.0066
2991.71	27.1693
2992.55	22.834
2993.38	25.3964
2994.22	22.9495
2995.06	24.5424
2995.9	23.3111
2996.73	23.9347
2997.57	23.9493
2998.41	25.574
2999.25	24.6299
3000.08	22.5714
3000.92	23.1099
3001.76	23.0847
3002.59	22.0154
3003.43	21.3738
3004.27	23.3525
3005.1	20.1924
3005.94	22.0957
3006.78	23.6318
3007.61	22.6335
3008.45	23.216
3009.28	21.4517
3010.12	23.4684
3010.95	22.074
3011.79	23
3012.62	24.6003
3013.46	23.5017
3014.29	24.3089
3015.13	24.1448
3015.96	21.8292
3016.8	25.1185
3017.63	24.9849
3018.47	24.5492
3019.3	23.4404
3020.14	24.2592
3020.97	23.879
3021.8	22.7806
3022.64	21.8387
3023.47	21.6519
3024.3	21.4156
3025.14	23.7923
3025.97	22.7155
3026.8	21.4022
3027.64	24.1703
3028.47	24.8255
3029.3	24.3439
3030.14	22.5876
3030.97	21.6529
3031.8	22.8066
3032.63	22.9054
3033.46	25.2168
3034.3	22.6157
3035.13	20.4279
3035.96	22.1035
3036.79	22.5892
3037.62	19.7247
3038.46	23.1591
3039.29	24.3429
3040.12	23.4876
3040.95	22.531
3041.78	21.051
3042.61	22.5177
3043.44	23.464
3044.27	23.0849
3045.1	22.7507
3045.93	23.0362
3046.76	21.1309
3047.59	20.5601
3048.42	22.4854
3049.25	21.2597
3050.08	23.794
3050.91	22.5154
3051.74	22.7994
3052.57	22.3727
3053.4	22.5068
3054.23	20.7117
3055.06	20.9543
3055.89	23.0975
3056.72	21.8225
3057.32	17.5
3058.15	20.5
3058.98	22.5
3059.82	22.5
3060.65	18
3061.48	22.5
3062.31	25.5
3063.15	25
3063.98	24.5
3064.81	24
3065.64	24
3066.48	25.5
3067.31	24
3068.14	17
3068.97	22
3069.8	24
3070.63	19.5
3071.47	24
3072.3	24.5
3073.13	22
3073.96	25
3074.79	21.5
3075.62	25
3076.45	23
3077.28	23
3078.11	18.5
3078.94	26
3079.77	20
3080.6	23
3081.43	22
3082.26	24.5
3083.09	21
3083.92	24
3084.75	23
3085.58	21
3086.41	23
3087.24	20.5
3088.07	22.5
3088.9	18
3089.73	22.5
3090.55	26
3091.38	23
3092.21	24.5
3093.04	22.5
3093.87	23
3094.7	22
3095.52	22.5
3096.35	22.5
3097.18	24.5
3098.01	20
3098.84	19
3099.66	21
3100.49	25.5
3101.32	23
3102.14	24.5
3102.97	23
3103.8	21.5
3104.62	22
3105.45	26
3106.28	18
3107.1	19.5
3107.93	25.5
3108.76	24
3109.58	20
3110.41	24.5
3111.23	24
3112.06	19
3112.89	22
3113.71	21.5
3114.54	22
3115.36	23
3116.19	20
3117.01	22.5
3117.84	22.5
3118.66	22
3119.49	22
3120.31	21
3121.13	24
3121.96	21.5
3122.78	22
3123.61	27
3124.43	27.5
3125.25	23
3126.08	24.5
3126.9	22
3127.73	25
3128.55	22.5
3129.37	20
3130.19	24.5
3131.02	24.5
3131.84	24.5
3132.66	24
3133.49	24.5
3134.31	20.5
3135.13	21
3135.95	22.5
3136.78	20
3137.6	22.5
3138.42	23.5
3139.24	26.5
3140.06	22.5
3140.88	22.5
3141.71	26.5
3142.53	20.5
3143.35	18.5
3144.17	23
3144.99	21
3145.81	22
3146.63	22.5
3147.45	21
3148.27	22.5
3149.09	22
3149.91	21
3150.73	18.5
3151.56	23
3152.37	21.5
3153.2	21
3154.01	25
3154.83	23
3155.65	23.5
3156.47	23
3157.29	24.5
3158.11	26
3158.93	26.5
3159.75	25
3160.57	25.5
3161.39	21
3162.21	24.5
3163.02	22.5
3163.84	22
3164.66	26.5
3165.48	27.5
3166.3	22
3167.11	24
3167.93	20.5
3168.75	24.5
3169.57	24.5
3170.39	22
3171.2	21.5
3172.02	22
3172.84	18.5
3173.65	23
3174.47	24.5
3175.29	25
3176.1	22.5
3176.92	21
3177.74	25
3178.55	25.5
3179.37	21.5
3180.19	26.5
3181	24.5
3181.82	24
3182.63	21
3183.45	22.5
3184.27	22.5
3185.08	21.5
3185.9	20.5
3186.71	26.5
3187.53	22.5
3188.34	26
3189.16	20
3189.97	24
3190.79	24.5
3191.6	24
3192.41	24
3193.23	22
3194.04	20
3194.86	25
3195.67	24.5
3196.48	23
3197.3	24
3198.11	17.5
3198.93	25
3199.74	21
3200.55	24
3201.36	20
3202.18	25
3202.99	26
3203.8	24
3204.62	23
3205.43	22.5
3206.24	25
3207.05	24.5
3207.87	24.5
3208.68	24
3209.49	27
3210.3	21.5
3211.11	22
3211.93	25.5
3212.74	20
3213.55	23
3214.36	21.5
3215.17	23
3215.98	24
3216.79	22.5
3217.6	21.5
3218.41	21
3219.22	24.5
3220.03	25.5
3220.85	28
3221.66	21.5
3222.47	21.5
3223.28	27
3224.09	25
3224.9	24.5
3225.71	24
3226.52	18.5
3227.33	23.5
3228.13	21
3228.94	23.5
3229.75	27
3230.56	27
3231.37	23
3232.18	24.5
3232.99	23
3233.8	26.5
3234.61	19.5
3235.41	19.5
3236.22	21.5
3237.03	23
3237.84	25.5
3238.65	21.5
3239.45	25
3240.26	23
3241.07	22
3241.88	22
3242.68	25.5
3243.49	20
3244.3	19.5
3245.1	25.5
3245.91	22
3246.72	21
3247.53	22
3248.33	25
3249.14	20.5
3249.95	22
3250.75	27
3251.56	24
3252.36	24
3253.17	26.5
3253.97	23.5
3254.78	21
3255.59	21.5
3256.39	24
3257.2	25
3258	23.5
3258.81	26.5
3259.61	24.5
3260.42	20
3261.22	22.5
3262.03	24.5
3262.83	21.5
3263.64	22
3264.44	20
3265.24	22.5
3266.05	27
3266.85	21.5
3267.66	24.5
3268.46	21.5
3269.26	25.5
3270.07	24
3270.87	28
3271.67	22
3272.48	24.5
3273.28	25
3274.08	22.5
3274.89	20
3275.69	27
3276.49	26.5
3277.29	22
3278.1	24
3278.9	19
3279.7	23
3280.5	26.5
3281.3	23.5
3282.11	26.5
3282.91	19
3283.71	26.5
3284.51	25
3285.31	27
3286.11	24
3286.91	25.5
3287.72	22.5
3288.52	20.5
3289.32	25
3290.12	24
3290.92	25
3291.72	19.5
3292.52	22.5
3293.32	21.5
3294.12	24
3294.92	25
3295.72	25
3296.52	22
3297.32	24
3298.12	24
3298.92	22.5
3299.72	24
3300.52	26.5
3301.32	25
3302.12	25
3302.92	26
3303.71	21
3304.51	26.5
3305.31	24.5
3306.11	21.5
3306.91	21.5
3307.71	20
3308.5	24
3309.3	24
3310.1	25.5
3310.9	26.5
3311.7	23
3312.49	24.5
3313.29	23
3314.09	23.5
3314.89	23.5
3315.68	22
3316.48	24
3317.28	24.5
3318.07	21.5
3318.87	25
3319.67	22.5
3320.46	21.5
3321.26	19
3322.06	22
3322.85	24
3323.65	23
3324.44	23.5
3325.24	21.5
3326.04	23
3326.83	22
3327.63	27
3328.42	23.5
3329.22	24
3330.01	21
3330.81	20
3331.6	18
3332.4	24
3333.19	25
3333.99	26
3334.78	21.5
3335.58	24
3336.37	23.5
3337.17	24
3337.96	23
3338.75	24.5
3339.55	22
3340.34	25
3341.13	24
3341.93	21.5
3342.72	23.5
3343.51	24.5
3344.31	21
3345.1	24.5
3345.89	25.5
3346.69	22
3347.48	23
3348.27	27
3349.06	25
3349.86	22.5
3350.65	27
3351.44	23.5
3352.23	24
3353.03	22.5
3353.82	23
3354.61	23.5
3355.4	19
3356.19	22
3356.98	24.5
3357.78	19.5
3358.57	23
3359.36	25.5
3360.15	22
3360.94	23.5
3361.73	22
3362.52	21
3363.31	23
3364.1	23
3364.89	24.5
3365.68	25
3366.47	28
3367.26	24
3368.05	29.5
3368.84	24.5
3369.63	25
3370.42	25
3371.21	23
3372	22
3372.79	22
3373.58	28
3374.37	22.5
3375.16	24.5
3375.95	26.5
3376.73	23.5
3377.52	22.5
3378.31	20
3379.1	22.5
3379.89	26.5
3380.68	26
3381.46	25
3382.25	23
3383.04	19.5
3383.83	22.5
3384.62	27.5
3385.4	25
3386.19	27
3386.98	25.5
3387.76	25.5
3388.55	21.5
3389.34	24
3390.13	25.5
3390.91	21.5
3391.7	19
3392.49	25.5
3393.27	23.5
3394.06	20
3394.84	29
3395.63	25
3396.42	22.5
3397.2	24.5
3397.99	25.5
3398.77	22
3399.56	23
3400.34	24.5
3401.13	23
3401.92	22
3402.7	21.5
3403.49	22.5
3404.27	28
3405.06	24
3405.84	22.5
3406.62	23.5
3407.41	22
3408.19	24
3408.98	24.5
3409.76	23
3410.55	22
3411.33	22.5
3412.11	25
3412.9	24
3413.68	26.5
3414.46	23.5
3415.25	22
3416.03	22.5
3416.81	23.5
3417.6	24
3418.38	23
3419.16	23.5
3419.95	22.5
3420.73	24.5
3421.51	26
3422.29	23.5
3423.08	23.5
3423.86	21.5
3424.64	21
3425.42	25.5
3426.2	22.5
3426.98	24
3427.77	25.5
3428.55	24.5
3429.33	25
3430.11	22.5
3430.89	21
3431.67	25.5
3432.45	25.5
3433.24	23
3434.02	20.5
3434.8	22.5
3435.58	23
3436.36	24
3437.14	24
3437.92	18.5
3438.7	24.5
3439.48	26.5
3440.26	27
3441.04	22
3441.82	26
3442.6	23.5
3443.38	24.5
3444.16	19
3444.94	25
3445.71	24
3446.49	23
3447.27	27
3448.05	22.5
3448.83	22
3449.61	23
3450.39	24.5
3451.17	21.5
3451.94	21.5
3452.72	24.5
3453.5	19
3454.28	23
3455.06	23.5
3455.83	29.5
3456.61	22.5
3457.39	27
3458.17	21
3458.94	22.5
3459.72	20
3460.5	20
3461.28	24
3462.05	23.5
3462.83	21
3463.61	23
3464.38	27
3465.16	24
3465.93	22.5
3466.71	25.5
3467.49	23
3468.26	25
3469.04	21.5
3469.82	22
3470.59	22.5
3471.37	21
3472.14	25.5
3472.92	19
3473.69	20
3474.47	23.5
3475.24	24.5
3476.02	25
3476.79	21.5
3477.57	24.5
3478.34	24
3479.12	25
3479.89	25
3480.67	24
3481.44	20
3482.21	24
3482.99	23
3483.76	25.5
3484.54	21.5
3485.31	22
3486.08	25
3486.86	28.5
3487.63	24
3488.4	27
3489.18	20.5
3489.95	22.5
3490.72	22.5
3491.5	25.5
3492.27	27
3493.04	19
3493.81	29
3494.59	18.5
3495.36	26
3496.13	20.5
3496.9	23
3497.67	21.5
3498.45	22
3499.22	21.5
3499.99	21.5
