#Acq. time (s)=	5
#Accumulations=	5
#Range (cm-¹)=	100...3500
#Windows=	4
#Autofocus=	Off
#AutoExposure=	Off
#Spike filter=	Multiple accum.
#Delay time (s)=	0
#Binning=	1
#Readout mode=	Signal
#DeNoise=	Off
#ICS correction=	Off
#Dark correction=	Off
#Inst. Process=	Off
#Instrument=	LabRAM HR Evol
#Detector=	Syncerity OE
#Objective=	x100_VIS
#Grating=	600 (500nm)
#ND Filter=	25%
#Laser=	633nm_Edge
#Hole=	100.021
#Range=	Visible
#Project=	verificaciones
#Sample=	a4
#Site=	lined
#Title=	bolusa4lined
#Remark=	
#Date=	09.01.2026 15:11
#Acquired=	09.01.2026 15:11:10
100.695	91
101.978	96
103.262	92
104.545	87
105.829	87.5
107.112	89
108.394	100
109.676	89.5
110.958	94.5
112.24	92.5
113.522	94.5
114.803	93
116.084	102.5
117.365	102
118.646	94
119.927	102
121.207	106
122.487	104.5
123.767	108
125.047	102.5
126.326	116
127.606	108
128.885	121.5
130.164	119.5
131.442	115
132.721	126
133.999	126
135.277	126
136.555	136.5
137.831	138
139.109	132
140.386	141
141.663	144
142.94	150.5
144.216	146
145.493	149
146.769	164
148.043	155.5
149.319	167
150.595	166
151.87	174
153.145	167.5
154.42	177.5
155.693	171.5
156.968	180
158.242	188
159.516	180
160.79	180
162.062	178
163.336	186
164.609	175.5
165.882	171
167.153	178
168.426	175
169.699	169
170.971	172
172.241	165.5
173.513	170.5
174.785	166.5
176.055	171
177.326	166
178.597	166
179.866	173
181.137	171.5
182.407	166
183.676	174.5
184.946	171.5
186.216	169
187.484	180
188.753	174
190.022	186
191.29	181.5
192.558	181.5
193.825	174.5
195.094	171.5
196.36	163.5
197.628	167
198.896	163.5
200.162	162
201.429	152
202.695	161
203.962	146.5
205.227	141.5
206.493	146.5
207.758	137.5
209.024	135
210.289	131
211.554	129
212.818	132
214.083	129
215.347	125
216.612	125.5
217.875	124.5
219.138	120
220.402	120
221.665	113
222.928	117
224.19	108
225.454	113
226.715	105
227.977	97.5
229.24	107
230.501	98.5
231.762	102.5
233.024	102.5
234.284	100
235.546	97.5
236.806	102.5
238.066	93.5
239.327	92.5
240.587	92.5
241.846	90
243.105	94.5
244.365	88.5
245.624	93.5
246.882	91.5
248.142	87
249.4	84.5
250.658	94
251.916	93.5
253.174	91.5
254.432	82
255.689	82.5
256.945	86.5
258.202	87.5
259.46	82
260.716	86
261.972	88.5
263.228	87
264.483	85
265.74	85.5
266.996	83.5
268.251	83.5
269.505	80.5
270.76	86
272.014	76
273.268	80
274.522	83
275.778	83.5
277.031	76
278.285	80
279.538	78.5
280.791	82
282.043	77.5
283.296	79.5
284.548	72
285.8	81
287.052	73.5
288.304	78
289.556	80.5
290.807	72
292.058	86
293.309	78.5
294.56	75
295.81	74.5
297.061	79
298.311	78.5
299.561	80.5
300.81	75
302.06	81.5
303.309	79.5
304.558	84
305.807	72
307.056	76.5
308.305	77
309.551	77
310.8	80
312.047	79.5
313.295	77
314.543	81
315.79	73
317.037	79.5
318.284	79.5
319.529	84
320.776	77.5
322.022	78
323.268	76
324.514	82
325.758	83
327.004	77.5
328.249	76
329.494	79
330.739	71.5
331.982	80.5
333.227	79.5
334.471	76
335.715	76.5
336.958	80
338.201	70
339.445	73
340.687	74
341.93	79
343.173	73
344.414	75.5
345.657	74.5
346.899	78.5
348.14	75
349.381	70
350.623	76
351.863	78
353.104	81.5
354.346	80.5
355.585	73
356.826	78.5
358.065	77
359.305	71.5
360.545	76
361.784	80.5
363.023	74.5
364.261	73
365.501	75
366.738	78
367.977	73.5
369.216	75
370.453	71
371.691	72.5
372.928	70
374.166	75
375.402	74.5
376.64	76.5
377.876	69.5
379.111	75.5
380.348	72.5
381.584	77
382.82	72
384.055	70
385.291	76.5
386.526	74.5
387.76	66
388.996	77.5
390.229	77
391.465	80
392.698	70
393.931	75
395.166	74
396.399	72.5
397.632	72
398.866	76
400.098	71.5
401.33	76
402.563	72
403.795	73.5
405.027	74.5
406.259	66
407.491	75.5
408.721	77
409.954	74
411.184	75.5
412.415	67
413.645	76
414.876	69
416.106	69
417.335	74
418.565	71.5
419.794	72.5
421.024	71
422.253	71
423.482	72.5
424.71	74
425.938	69.5
427.168	73.5
428.396	71
429.623	76.5
430.851	76.5
432.078	74
433.305	65
434.532	74
435.758	82
436.986	69
438.212	74.5
439.438	71.5
440.664	70
441.89	74.5
443.115	74
444.34	78
445.566	76.5
446.79	77
448.015	75.5
449.24	83
450.464	80.5
451.688	83
452.912	84
454.135	84.5
455.359	82
456.582	79.5
457.805	83
459.028	87
460.251	86
461.473	89
462.696	93.5
463.918	94.5
465.14	97
466.36	100.5
467.582	102
468.803	109
470.024	107.5
471.245	124.5
472.466	132.5
473.686	134
474.907	152.5
476.126	171.5
477.346	185.5
478.565	200.5
479.785	210
481.004	241
482.224	269
483.441	280
484.66	307.5
485.879	324.5
487.097	335.5
488.314	340
489.532	336
490.75	333.5
491.967	313
493.184	301
494.401	304.5
495.618	273.5
496.835	264.5
498.05	236.5
499.267	240
500.483	220
501.698	204
502.913	192
504.129	184.5
505.343	174.5
506.559	162.5
507.774	162
508.987	148
510.202	132
511.415	132
512.63	130.5
513.844	123.5
515.056	118.5
516.27	119
517.482	111.5
518.696	108.5
519.907	109.5
521.121	109.5
522.332	101.5
523.545	90.5
524.757	97
525.968	87.5
527.18	92.5
528.39	94
529.602	94.5
530.812	91.5
532.023	92
533.233	84.5
534.443	83.5
535.653	86
536.862	88.5
538.073	85
539.281	78.5
540.491	86.5
541.7	82
542.908	78
544.117	79.5
545.325	76
546.534	81.5
547.741	77
548.949	82
550.157	78
551.364	78
552.57	79.5
553.778	77.5
554.985	70
556.191	74
557.398	71
558.604	67
559.809	74
561.014	69
562.221	77
563.426	69
564.63	72.5
565.835	76
567.041	74
568.245	69.5
569.449	80
570.653	72
571.856	69
573.061	70
574.264	67
575.467	70
576.67	67
577.873	68
579.076	68
580.279	68
581.481	74.5
582.683	66
583.884	68
585.086	64
586.287	75
587.488	67
588.689	67
589.891	68
591.092	66
592.292	70
593.492	69
594.692	66
595.892	71
597.092	72
598.291	70.5
599.49	64
600.689	74
601.888	68.5
603.087	66
604.285	66.5
605.483	70.5
606.681	65
607.879	70.5
609.077	74
610.274	69.5
611.472	74
612.668	74
613.865	66
615.061	74.5
616.258	71
617.454	68.5
618.65	66
619.846	74.5
621.042	68.5
622.238	72.5
623.432	71
624.627	72
625.822	69.5
627.017	68
628.212	69
629.406	78.5
630.599	72
631.793	73
632.987	76
634.181	76.5
635.373	73
636.566	74.5
637.76	73
638.953	72.5
640.144	78
641.337	79
642.529	77
643.721	75
644.912	74
646.104	75
647.295	69
648.485	75.5
649.677	71
650.868	68
652.057	72
653.248	75
654.437	74
655.628	76
656.818	75
658.006	74.5
659.196	77
660.384	75.5
661.574	74.5
662.763	81.5
663.951	76.5
665.14	87.5
666.327	80.5
667.515	79
668.702	78.5
669.891	85
671.077	81
672.265	82
673.451	82.5
674.638	91.5
675.824	89
677.011	98
678.197	91
679.383	96
680.568	109.5
681.755	117
682.939	112
684.124	119.5
685.309	119
686.494	132
687.679	130.5
688.863	125.5
690.046	115.5
691.231	115
692.414	123.5
693.599	120.5
694.781	117.5
695.964	131
697.148	119
698.33	128.5
699.512	138.5
700.694	143
701.877	153
703.059	173.5
704.24	181.5
705.423	210
706.604	228
707.784	243
708.965	260.5
710.147	263
711.327	236
712.507	211
713.687	179.5
714.867	157.5
716.048	127.5
717.227	112.5
718.406	105
719.585	98
720.764	91
721.942	90
723.122	79.5
724.3	82.5
725.478	84
726.656	78.5
727.834	74
729.011	81
730.189	78
731.366	75
732.543	76
733.719	71.5
734.896	70.5
736.072	70
737.249	71
738.426	76.5
739.602	70.5
740.777	69
741.953	68.5
743.128	68
744.303	73
745.477	73
746.651	65
747.826	75
749	75
750.174	72
751.348	65
752.522	65
753.696	66
754.869	69.5
756.043	68.5
757.216	62.5
758.389	71.5
759.561	66.5
760.732	67
761.905	72.5
763.077	62
764.249	69.5
765.421	62.5
766.592	67
767.762	73
768.934	61.5
770.105	69
771.275	70.5
772.446	75.5
773.615	69
774.786	71.5
775.956	71.5
777.126	75
778.294	74.5
779.464	79
780.633	78
781.801	88.5
782.97	88.5
784.139	94
785.306	90
786.475	96
787.643	98
788.81	99.5
789.978	86
791.146	99.5
792.312	92
793.479	87
794.647	84.5
795.812	85
796.979	91.5
798.144	89
799.311	84.5
800.477	79
801.642	84
802.808	79.5
803.972	72
805.138	75
806.302	72
807.467	69.5
808.631	72
809.796	75.5
810.959	69.5
812.124	72.5
813.287	75.5
814.451	75
815.614	68.5
816.777	72
817.94	64
819.102	65.5
820.265	63
821.427	65
822.59	65.5
823.751	69.5
824.912	68.5
826.074	71.5
827.235	65.5
828.397	63.5
829.558	62
830.718	69
831.879	69.5
833.039	66
834.199	64.5
835.359	66
836.519	65
837.679	66.5
838.838	69.5
839.998	68
841.156	67
842.315	76
843.473	69
844.633	76
845.791	71
846.948	68.5
848.106	68
849.263	72
850.422	66.5
851.579	70
852.736	72.5
853.892	73
855.049	71
856.205	75.5
857.363	74.5
858.519	76.5
859.674	82.5
860.83	77
861.986	81.5
863.141	89
864.296	78
865.451	79
866.605	80.5
867.76	75
868.914	75.5
870.069	74.5
871.224	72
872.378	74.5
873.531	68
874.685	70.5
875.838	69
876.991	76
878.144	73
879.296	74
880.448	66
881.6	73
882.753	69
883.905	65
885.057	70.5
886.208	70
887.36	65
888.511	65
889.662	68
890.813	62
891.964	67
893.113	66.5
894.264	59.5
895.414	59
896.564	64
897.714	63.5
898.864	57.5
900.012	56
901.161	68
902.31	57
903.459	58
904.607	58
905.756	62
906.904	60
908.052	57
909.199	57.5
910.347	63.5
911.495	61.5
912.643	66
913.789	59.5
914.936	61.5
916.083	58.5
917.229	62
918.375	59.5
919.522	64.5
920.667	60.5
921.813	65
922.959	64
924.104	62.5
925.249	56.5
926.393	64
927.539	59
928.684	61.5
929.827	56.5
930.972	59
932.115	59
933.26	60.5
934.403	57
935.547	62.5
936.689	56.5
937.833	63
938.975	56
940.119	59.5
941.26	59
942.404	62.5
943.545	57
944.688	65
945.829	61
946.971	60.5
948.112	59.5
949.253	60
950.394	59.5
951.535	61.5
952.676	59.5
953.816	62.5
954.956	60.5
956.097	62.5
957.236	60.5
958.377	62
959.516	58.5
960.655	59.5
961.793	57
962.933	59.5
964.071	57.5
965.21	56.5
966.349	59
967.487	60
968.624	60.5
969.762	57.5
970.901	59
972.038	60.5
973.175	65.5
974.311	58.5
975.449	56
976.586	55.5
977.722	58
978.858	59.5
979.994	63.5
981.131	60.5
982.267	56
983.402	59.5
984.537	66.5
985.672	55.5
986.807	60
987.942	64
989.076	63
990.211	58.5
991.346	62
992.48	61.5
993.614	53
994.748	66.5
995.881	55.5
997.014	57
998.148	60.5
999.28	63
1000.41	63
1001.55	58.5
1002.68	61.5
1003.81	57.5
1004.94	58.5
1006.07	65
1007.21	55
1008.34	62
1009.47	56
1010.6	60
1011.73	56
1012.86	61.5
1013.99	66.5
1015.12	55
1016.25	52
1017.38	60
1018.51	60.5
1019.64	61.5
1020.77	64
1021.9	62
1023.03	61.5
1024.16	61.5
1025.29	57.5
1026.42	57
1027.54	54.5
1028.67	60.5
1029.8	55.5
1030.93	59.5
1032.06	62.5
1033.18	57
1034.31	52.5
1035.44	60
1036.56	60
1037.69	61
1038.82	55.5
1039.94	58
1041.07	59.5
1042.2	62
1043.32	59
1044.45	57.5
1045.57	57.5
1046.7	57
1047.82	59
1048.95	61.5
1050.07	62
1051.2	56
1052.32	57
1053.45	57
1054.57	63.5
1055.69	61.5
1056.82	63.5
1057.94	59
1059.06	57.5
1060.19	59
1061.31	58
1062.43	62
1063.55	59.5
1064.68	56
1065.8	58.5
1066.92	57
1068.04	53.5
1069.16	61
1070.28	58.5
1071.41	59.5
1072.53	59.5
1073.65	62.5
1074.77	57
1075.89	59
1077.01	56
1078.13	55.5
1079.25	62
1080.37	59
1081.49	65.5
1082.61	52
1083.73	62.5
1084.85	58
1085.96	60
1087.08	58.5
1088.2	59.5
1089.32	56
1090.44	55
1091.56	67
1092.67	57
1093.79	55.5
1094.91	60
1096.03	57
1097.14	55.5
1098.26	56.5
1099.38	54
1100.49	60.5
1101.61	63
1102.73	56
1103.84	59
1104.96	57
1106.07	58
1107.19	59
1108.3	55.5
1109.42	52
1110.53	60
1111.65	54
1112.76	61
1113.88	60
1114.99	58
1116.1	61
1117.22	56
1118.33	59
1119.44	53
1120.56	55
1121.67	52
1122.78	55
1123.9	54.5
1125.01	53.5
1126.12	60
1127.23	61.5
1128.34	55
1129.46	53
1130.57	53.5
1131.68	60
1132.79	57
1133.9	47.5
1135.01	60
1136.12	53.5
1137.23	55
1138.34	58.5
1139.45	57
1140.56	57
1141.67	55.5
1142.78	54.5
1143.89	57
1145	57.5
1146.11	54
1147.22	58
1148.33	57.5
1149.44	60.5
1150.54	55.5
1151.65	54
1152.76	58.5
1153.87	56
1154.97	58.5
1156.08	58
1157.19	54
1158.3	60
1159.4	58
1160.51	56.5
1161.62	59.5
1162.72	62
1163.83	62
1164.93	55
1166.04	59.5
1167.15	58
1168.25	56
1169.36	53
1170.46	60
1171.57	52
1172.67	54.5
1173.78	55
1174.88	51.5
1175.98	57.5
1177.09	53.5
1178.19	58
1179.3	53.5
1180.4	55.5
1181.5	56.5
1182.61	53
1183.71	56.5
1184.81	51.5
1185.91	62
1187.02	58.5
1188.12	54
1189.22	53.5
1190.32	59.5
1191.42	62
1192.53	53
1193.63	59
1194.73	51.5291
1195.83	57.9528
1196.93	52.2522
1198.03	57.1625
1199.13	56.1537
1200.23	52.6792
1201.33	57.2828
1202.43	54.544
1203.53	59.0841
1204.63	50.3387
1205.73	55.8381
1206.83	54.4069
1207.93	59.483
1209.02	56.6172
1210.12	56.4459
1211.22	56.6933
1212.32	56.1737
1213.42	55.7675
1214.52	52.1415
1215.61	54.3804
1216.71	53.414
1217.81	57.4154
1218.91	53.7131
1220	58.1485
1221.1	52.4026
1222.2	57.5644
1223.29	56.8644
1224.39	54.4832
1225.49	52.6204
1226.58	56.4807
1227.68	54.2771
1228.77	60.0555
1229.87	56.127
1230.96	56.5796
1232.06	53.5112
1233.15	53.7584
1234.25	57.3953
1235.34	56.3963
1236.44	54.8402
1237.53	53.9592
1238.63	61.1643
1239.72	61.9174
1240.81	57.4806
1241.91	58.7069
1243	54.8229
1244.09	56.7467
1245.19	56.2982
1246.28	60.7197
1247.37	60.1781
1248.46	60.6524
1249.56	59.2253
1250.65	61.5
1251.74	58.5387
1252.83	68.2754
1253.92	66.3212
1255.01	69.5357
1256.11	71.1628
1257.2	70.7887
1258.29	68.528
1259.38	72.5493
1260.47	73.9296
1261.56	72.145
1262.65	71.8926
1263.74	72.3308
1264.83	70.7674
1265.92	71.4301
1267.01	70.9418
1268.1	66.6418
1269.19	63.1585
1270.27	68.4262
1271.36	59.2892
1272.45	58.0849
1273.54	55.6038
1274.63	62.256
1275.72	55.2794
1276.8	55.395
1277.89	57.6687
1278.98	60.2524
1280.07	62.6194
1281.15	59.7083
1282.24	60.3946
1283.33	59.0918
1284.41	57.3346
1285.5	58.4137
1286.59	55.8033
1287.67	56
1288.76	60.6908
1289.84	56.7852
1290.93	59.1673
1292.01	59.2613
1293.1	59.5165
1294.19	56.9478
1295.27	49.5901
1296.35	55.0006
1297.44	54.8288
1298.52	57.5699
1299.61	55.8197
1300.69	53.6952
1301.78	56.7616
1302.86	57.2933
1303.94	55.0628
1305.03	56.2851
1306.11	54.4109
1306.4	53.5
1307.49	52.5
1308.57	58
1309.66	58
1310.75	60
1311.84	52
1312.92	57.5
1314.01	60
1315.1	53.5
1316.19	53
1317.27	58.5
1318.36	52
1319.45	54
1320.53	57
1321.62	60
1322.7	54.5
1323.79	49.5
1324.88	58.5
1325.96	56.5
1327.05	55
1328.13	55.5
1329.21	59
1330.3	53
1331.38	56
1332.47	56
1333.55	58
1334.64	49
1335.72	64
1336.8	61
1337.89	60
1338.97	64
1340.05	55
1341.14	53
1342.22	59
1343.3	55
1344.39	57
1345.47	51
1346.55	57
1347.63	57
1348.71	54
1349.79	52
1350.88	50
1351.96	54.5
1353.04	57.5
1354.12	58
1355.2	57.5
1356.28	54.5
1357.36	59
1358.44	55.5
1359.52	54
1360.6	54
1361.68	59.5
1362.76	55
1363.84	59.5
1364.92	56.5
1366	57.5
1367.08	65.5
1368.16	58.5
1369.23	59
1370.31	57
1371.39	54.5
1372.47	59.5
1373.55	57
1374.62	57.5
1375.7	56.5
1376.78	61
1377.85	59
1378.93	62.5
1380.01	58.5
1381.09	61
1382.16	63
1383.24	60.5
1384.31	59
1385.39	64
1386.47	62.5
1387.54	65.5
1388.62	69
1389.69	63.5
1390.77	66
1391.84	59
1392.92	63
1393.99	66.5
1395.06	69
1396.14	74.5
1397.21	72.5
1398.29	82.5
1399.36	84
1400.43	90
1401.51	84
1402.58	87
1403.65	88.5
1404.73	94
1405.8	100.5
1406.87	100
1407.94	102
1409.02	93
1410.09	105.5
1411.16	101.5
1412.23	105.5
1413.3	103
1414.37	105
1415.45	96.5
1416.52	97
1417.59	87
1418.66	91
1419.73	85
1420.8	88
1421.87	77
1422.94	77
1424.01	72
1425.08	75
1426.15	70.5
1427.22	71.5
1428.29	69.5
1429.35	66
1430.42	69
1431.49	68
1432.56	67
1433.63	63
1434.7	66.5
1435.77	64
1436.83	70.5
1437.9	66.5
1438.97	63
1440.04	65
1441.1	64
1442.17	68
1443.24	71.5
1444.3	65
1445.37	61
1446.44	61
1447.5	56
1448.57	61.5
1449.63	65.5
1450.7	53
1451.76	66.5
1452.83	61.5
1453.89	61
1454.96	61
1456.02	59.5
1457.09	61
1458.15	57.5
1459.22	63
1460.28	62
1461.34	59
1462.41	57.5
1463.47	61.5
1464.54	59.5
1465.6	60
1466.66	55
1467.72	62
1468.79	58.5
1469.85	58.5
1470.91	56
1471.97	61
1473.04	57
1474.1	62
1475.16	62.5
1476.22	57.5
1477.28	53
1478.34	54.5
1479.4	60
1480.47	59.5
1481.53	58.5
1482.59	65
1483.65	62
1484.71	62
1485.77	56.5
1486.83	63.5
1487.89	63.5
1488.95	58
1490.01	64
1491.07	54
1492.12	58
1493.18	59.5
1494.24	59
1495.3	56
1496.36	67
1497.42	60
1498.47	58.5
1499.53	63.5
1500.59	55
1501.65	59
1502.7	59
1503.76	59.5
1504.82	58.5
1505.88	57.5
1506.93	56.5
1507.99	60.5
1509.05	57.5
1510.1	60
1511.16	58
1512.21	61
1513.27	54.5
1514.32	54
1515.38	63
1516.43	57
1517.49	58
1518.54	58
1519.6	54
1520.65	60.5
1521.71	55
1522.76	57.5
1523.82	50.5
1524.87	58
1525.92	54
1526.98	50
1528.03	56.5
1529.08	60.5
1530.14	57
1531.19	52
1532.24	57.5
1533.3	60.5
1534.35	55.5
1535.4	51.5
1536.45	63
1537.5	61
1538.56	61.5
1539.61	52
1540.66	58
1541.71	56
1542.76	53.5
1543.81	52.5
1544.86	54
1545.91	54
1546.96	57.5
1548.01	52.5
1549.06	57.5
1550.11	58
1551.16	61
1552.21	53.5
1553.26	54
1554.31	60
1555.36	58
1556.41	56.5
1557.46	57
1558.51	59.5
1559.55	59
1560.6	53
1561.65	57
1562.7	57.5
1563.75	59.5
1564.79	54.5
1565.84	60
1566.89	58
1567.94	63.5
1568.98	52
1570.03	59
1571.07	54.5
1572.12	53.5
1573.17	57.5
1574.21	56
1575.26	52.5
1576.31	50
1577.35	59.5
1578.4	54.5
1579.44	56
1580.49	56.5
1581.53	60
1582.58	49.5
1583.62	52
1584.67	54
1585.71	54.5
1586.75	54
1587.8	57
1588.84	57
1589.89	59
1590.93	52.5
1591.97	51.5
1593.02	54.5
1594.06	54
1595.1	54
1596.14	54
1597.19	57
1598.23	53.5
1599.27	54.5
1600.31	52.5
1601.35	53
1602.4	56
1603.44	55.5
1604.48	50.5
1605.52	56
1606.56	53.5
1607.6	46.5
1608.64	49
1609.68	50.5
1610.72	51
1611.76	58.5
1612.8	53.5
1613.84	56
1614.88	50.5
1615.92	58
1616.96	54.5
1618	54.5
1619.04	53
1620.08	57.5
1621.12	53.5
1622.16	54
1623.19	51
1624.23	54.5
1625.27	47
1626.31	57
1627.35	51
1628.38	54
1629.42	55.5
1630.46	53.5
1631.5	51
1632.53	55
1633.57	54.5
1634.61	53
1635.64	54
1636.68	56.5
1637.71	50.5
1638.75	57
1639.79	54
1640.82	57.5
1641.86	50
1642.89	54
1643.93	52
1644.96	54
1646	56
1647.03	55
1648.07	50.5
1649.1	53.5
1650.14	57
1651.17	57.5
1652.2	53.5
1653.24	50.5
1654.27	53
1655.3	54
1656.34	55
1657.37	52.5
1658.4	53.5
1659.44	56
1660.47	52.5
1661.5	48.5
1662.53	51
1663.57	48
1664.6	46.5
1665.63	47
1666.66	51
1667.69	50.5
1668.72	46
1669.75	55
1670.79	51.5
1671.82	50.5
1672.85	55.5
1673.88	51
1674.91	52
1675.94	50
1676.97	49
1678	48
1679.03	49
1680.06	53
1681.09	50
1682.11	45.5
1683.14	54.5
1684.17	54
1685.2	47
1686.23	48
1687.26	49.5
1688.29	47
1689.32	50
1690.34	49
1691.37	51
1692.4	54
1693.43	52.5
1694.45	52.5
1695.48	52
1696.51	48
1697.53	52.5
1698.56	49.5
1699.59	55.5
1700.61	46.5
1701.64	49.5
1702.66	50.5
1703.69	45.5
1704.72	52.5
1705.74	49
1706.77	52
1707.79	53.5
1708.82	49
1709.84	51
1710.87	49.5
1711.89	47
1712.92	51
1713.94	51
1714.96	51
1715.99	49.5
1717.01	49
1718.04	55.5
1719.06	53
1720.08	49.5
1721.11	52
1722.13	50.5
1723.15	50
1724.17	51
1725.2	51.5
1726.22	51.5
1727.24	50.5
1728.26	50
1729.28	48
1730.31	49
1731.33	47
1732.35	46
1733.37	48
1734.39	50.5
1735.41	51.5
1736.43	53
1737.45	47.5
1738.47	50
1739.49	53
1740.51	47
1741.53	47.5
1742.55	50
1743.57	52
1744.59	51.5
1745.61	52.5
1746.63	51.5
1747.65	51
1748.67	45.5
1749.69	46
1750.71	49.5
1751.72	48.5
1752.74	48.5
1753.76	51.5
1754.78	50
1755.8	51
1756.81	48
1757.83	48
1758.85	49
1759.86	44.5
1760.88	47.5
1761.9	49.5
1762.91	49.5
1763.93	52.5
1764.95	46
1765.96	50.5
1766.98	49
1768	49.5
1769.01	48
1770.03	54
1771.04	48
1772.06	46.5
1773.07	50.5
1774.09	52
1775.1	49
1776.12	50
1777.13	47.5
1778.14	45
1779.16	50.5
1780.17	52.5
1781.19	47.5
1782.2	52.5
1783.21	50.5
1784.23	51.5
1785.24	49
1786.25	51
1787.27	45
1788.28	46
1789.29	51
1790.3	52.5
1791.32	46.5
1792.33	47
1793.34	46.5
1794.35	42
1795.36	49
1796.37	48.5
1797.38	51
1798.4	48
1799.41	51.5
1800.42	51
1801.43	49
1802.44	48
1803.45	50
1804.46	46.5
1805.47	50
1806.48	51
1807.49	45.5
1808.5	51.5
1809.51	51
1810.52	49
1811.53	46
1812.53	54
1813.54	49
1814.55	47
1815.56	47.5
1816.57	47.5
1817.58	46
1818.58	48.5
1819.59	50.5
1820.6	47.5
1821.61	45
1822.61	47
1823.62	46
1824.63	47
1825.64	45.5
1826.64	46
1827.65	44
1828.66	49
1829.66	49
1830.67	46.5
1831.67	46
1832.68	51.5
1833.68	43.5
1834.69	48.5
1835.7	43.5
1836.7	52.5
1837.71	45
1838.71	46.5
1839.71	50.5
1840.72	51
1841.72	47
1842.73	45
1843.73	43
1844.74	46.5
1845.74	46.5
1846.74	45.5
1847.75	48
1848.75	49.5
1849.75	46.5
1850.76	44.5
1851.76	48
1852.76	48.5
1853.76	48
1854.77	55
1855.77	40
1856.77	40.5
1857.77	42
1858.77	47.5
1859.78	48.5
1860.78	50.5
1861.78	44.5
1862.78	48.5
1863.78	49.5
1864.78	41
1865.78	45
1866.78	47
1867.78	45
1868.78	50
1869.78	46.5
1870.78	46
1871.78	43
1872.78	47
1873.78	48.5
1874.78	46.5
1875.78	47
1876.78	46
1877.78	46.5
1878.78	47
1879.77	45
1880.77	50
1881.77	44
1882.77	44
1883.77	42
1884.76	48.5
1885.76	48
1886.76	47.5
1887.76	48.5
1888.75	47
1889.75	43.5
1890.75	44
1891.74	48
1892.74	42.5
1893.74	47.5
1894.73	47.5
1895.73	45.5
1896.72	43
1897.72	49
1898.72	48
1899.71	41.5
1900.71	42.5
1901.7	44.5
1902.7	40.5
1903.69	49
1904.69	54
1905.68	43
1906.67	46
1907.67	47.5
1908.66	49
1909.66	46.5
1910.65	49
1911.64	46
1912.64	47
1913.63	43
1914.62	46.5
1915.62	46
1916.61	45
1917.6	44
1918.59	46
1919.59	39
1920.58	49
1921.57	44
1922.56	45.5
1923.55	42
1924.55	44.5
1925.54	38.5
1926.53	51
1927.52	43.5
1928.51	45
1929.5	49
1930.49	44
1931.48	50
1932.47	46
1933.46	43
1934.45	45
1935.44	44.5
1936.43	48.5
1937.42	54.5
1938.41	42
1939.4	43
1940.39	45
1941.38	42.5
1942.37	45.5
1943.36	47
1944.34	47
1945.33	45.5
1946.32	42.5
1947.31	45
1948.3	46.25
1949.28	46.5
1950.27	43.5
1951.26	47
1952.25	39
1953.23	47
1954.22	41
1955.21	39.5
1956.2	40
1957.18	46
1958.17	42
1959.15	45
1960.14	38.5
1961.13	47
1962.11	45
1963.1	48
1964.08	39.5
1965.07	40.5
1966.05	51
1967.04	40
1968.02	47
1969.01	45
1969.99	39
1970.98	41
1971.96	42
1972.94	47
1973.93	43
1974.91	44
1975.9	43
1976.88	41.5
1977.86	44.5
1978.85	46
1979.83	46.5
1980.81	49
1981.8	49.5
1982.78	44
1983.76	45.5
1984.74	45.5
1985.72	46.5
1986.71	43.5
1987.69	48
1988.67	46
1989.65	42
1990.63	39
1991.61	44
1992.6	42.5
1993.58	44.5
1994.56	39.5
1995.54	45.5
1996.52	47.5
1997.5	42
1998.48	45
1999.46	41
2000.44	44
2001.42	45
2002.4	44
2003.38	45.5
2004.36	42.5
2005.34	46
2006.32	44.5
2007.29	44
2008.27	47
2009.25	40
2010.23	44
2011.21	44
2012.19	40
2013.16	42
2014.14	43
2015.12	48
2016.1	40.5
2017.07	45.5
2018.05	45
2019.03	38
2020	43
2020.98	39
2021.96	41
2022.93	44
2023.91	43
2024.89	42.5
2025.86	41
2026.84	45
2027.81	47
2028.79	42.5
2029.77	37
2030.74	43.5
2031.72	45
2032.69	42
2033.67	45
2034.64	40
2035.61	46
2036.59	46.5
2037.56	45.5
2038.54	41.5
2039.51	43
2040.48	44
2041.46	47
2042.43	46.5
2043.41	50
2044.38	43.5
2045.35	44
2046.32	40.5
2047.3	39.5
2048.27	39
2049.24	42
2050.21	43
2051.19	43
2052.16	43
2053.13	39
2054.1	39.5
2055.07	41
2056.04	43.5
2057.02	42
2057.99	41
2058.96	43.5
2059.93	44
2060.9	43.5
2061.87	42.5
2062.84	42
2063.81	44
2064.78	43.5
2065.75	44.5
2066.72	45
2067.69	42
2068.66	39
2069.63	38
2070.6	42.5
2071.57	40
2072.53	45.5
2073.5	42
2074.47	42
2075.44	44
2076.41	46
2077.38	43
2078.34	39
2079.31	41.5
2080.28	42
2081.25	39
2082.21	44
2083.18	42.5
2084.15	44
2085.12	40
2086.08	40.5
2087.05	38.5
2088.02	43.5
2088.98	36
2089.95	42
2090.91	38
2091.88	43.5
2092.85	46.5
2093.81	47
2094.78	40
2095.74	41.5
2096.71	41.5
2097.67	43.5
2098.64	40
2099.6	45
2100.57	43
2101.53	40
2102.5	39
2103.46	44.5
2104.42	46
2105.39	41
2106.35	46
2107.31	43
2108.28	45
2109.24	45
2110.2	38.5
2111.17	38.5
2112.13	41.5
2113.09	43
2114.06	42.5
2115.02	40.5
2115.98	43.5
2116.94	42
2117.9	42.5
2118.86	41.5
2119.83	46.5
2120.79	45
2121.75	40
2122.71	41
2123.67	42
2124.63	40
2125.59	44
2126.55	41
2127.51	44
2128.48	39
2129.43	41
2130.4	42
2131.35	44
2132.31	44
2133.27	45
2134.23	46
2135.19	43
2136.15	43.5
2137.11	40
2138.07	39
2139.03	41
2139.99	35.5
2140.95	44
2141.9	42.5
2142.86	39.0022
2143.82	41.9803
2144.78	40.0243
2145.74	41.5025
2146.69	41.5223
2147.65	41.9853
2148.61	40.8125
2149.56	41.9031
2150.52	43.8654
2151.48	44.2457
2152.44	39.5884
2153.39	40.7902
2154.35	38.8181
2155.3	36.8456
2156.26	39.2724
2157.22	39.8666
2158.17	38.1512
2159.13	39.6935
2160.08	43.6735
2161.04	41.6735
2161.99	41.5453
2162.95	39.7694
2163.9	40.4368
2164.86	37.199
2165.81	42.1643
2166.77	35.8933
2167.72	38.3761
2168.68	40.0887
2169.63	39.5224
2170.58	42.2962
2171.54	40.4945
2172.49	38.8701
2173.44	39.2932
2174.4	38.2169
2175.35	39.0294
2176.3	37.4295
2177.26	39.1789
2178.21	36.8383
2179.16	38.2243
2180.11	39.632
2181.07	40.5244
2182.02	41.6706
2182.97	38.875
2183.92	40.3607
2184.88	38.9838
2185.83	38.2001
2186.78	41.3398
2187.73	35.1141
2188.68	38.5021
2189.63	37.0399
2190.58	40.1623
2191.53	38.5787
2192.48	40.9584
2193.43	39.0624
2194.38	42.2567
2195.33	40.8605
2196.28	42.2813
2197.23	38.9921
2198.18	39.072
2199.13	36.9428
2200.08	46.493
2201.03	39.0481
2201.98	41.4677
2202.93	39.2794
2203.88	37.0163
2204.83	35.5375
2205.78	37.7093
2206.72	39.2845
2207.67	41.161
2208.62	38.3655
2209.57	39.6577
2210.52	41.4597
2211.46	39.1779
2212.41	35.915
2213.36	39.4529
2214.31	40.6168
2215.25	38.6235
2216.2	40.7613
2217.15	40.3561
2218.09	39.7335
2219.04	41.2687
2219.99	38.0793
2220.93	38.7725
2221.88	41.7387
2222.83	41.2578
2223.77	39.0134
2224.72	36.8776
2225.66	40.4018
2226.61	40.6882
2227.55	37.9601
2228.5	41.5095
2229.44	39.9667
2230.39	36.6331
2231.33	38.5603
2232.28	38.1933
2233.22	39.4683
2234.17	38.7329
2235.11	42.7337
2236.05	42.718
2237	40.0559
2237.94	40.2116
2238.88	40.8289
2239.83	35.9272
2240.04	34.5
2240.98	40
2241.93	38
2242.88	40.5
2243.83	36
2244.78	38
2245.72	39
2246.67	43.5
2247.62	39
2248.56	39
2249.51	41
2250.46	40
2251.4	38
2252.35	36.5
2253.3	39
2254.24	35.5
2255.19	39
2256.14	40
2257.08	40
2258.03	39.5
2258.97	39
2259.92	42.5
2260.86	43.5
2261.81	33
2262.75	41.5
2263.7	38.5
2264.64	37
2265.59	42
2266.53	41
2267.48	39
2268.42	43.5
2269.36	38
2270.31	42.5
2271.25	40.5
2272.19	36.5
2273.14	36
2274.08	36.5
2275.02	44.5
2275.97	38.5
2276.91	37.5
2277.85	44
2278.8	40
2279.74	40.5
2280.68	37
2281.62	38.5
2282.56	41
2283.51	35
2284.45	44.5
2285.39	36.5
2286.33	40
2287.27	38.5
2288.21	38
2289.15	39
2290.09	37.5
2291.04	40.5
2291.98	36.5
2292.92	42
2293.86	42
2294.8	37.5
2295.74	40.5
2296.68	37.5
2297.62	36
2298.56	39
2299.5	38.5
2300.44	40
2301.37	37.5
2302.31	39
2303.25	40
2304.19	38.5
2305.13	39.5
2306.07	39
2307.01	38.5
2307.94	37
2308.88	38.5
2309.82	40
2310.76	40.5
2311.7	38
2312.63	39
2313.57	40
2314.51	39
2315.44	37.5
2316.38	37.5
2317.32	36
2318.26	37.5
2319.19	41
2320.13	38.5
2321.06	41
2322	43
2322.94	40.5
2323.87	35
2324.81	37
2325.74	39
2326.68	37
2327.61	39
2328.55	42
2329.48	34.5
2330.42	37.5
2331.35	42
2332.29	33
2333.22	43.5
2334.16	44.5
2335.09	40
2336.02	39.5
2336.96	40.5
2337.89	42.5
2338.83	36
2339.76	38
2340.69	33
2341.63	34
2342.56	40.5
2343.49	44
2344.42	38
2345.36	37
2346.29	43
2347.22	35
2348.15	38
2349.09	38.5
2350.02	40
2350.95	38.5
2351.88	43
2352.81	41.5
2353.74	37
2354.68	37
2355.61	41
2356.54	41.5
2357.47	39
2358.4	41
2359.33	33.5
2360.26	37
2361.19	42
2362.12	34
2363.05	36.5
2363.98	41.5
2364.91	38.5
2365.84	37
2366.77	38
2367.7	40
2368.63	42
2369.56	38.5
2370.49	34.5
2371.41	40
2372.34	39
2373.27	35
2374.2	40
2375.13	38.5
2376.06	40
2376.98	37.5
2377.91	39
2378.84	36.5
2379.77	40.5
2380.69	34
2381.62	37.5
2382.55	38.5
2383.47	36.5
2384.4	39.5
2385.33	36
2386.25	38
2387.18	38.5
2388.11	38
2389.03	41
2389.96	34.5
2390.89	38
2391.81	39
2392.74	39
2393.66	38
2394.59	37.5
2395.51	39
2396.44	43
2397.36	41
2398.29	35.5
2399.21	38
2400.14	36
2401.06	37
2401.99	37.5
2402.91	39.5
2403.83	40
2404.76	36
2405.68	35
2406.6	37
2407.53	43
2408.45	37
2409.37	39
2410.3	33.5
2411.22	40
2412.14	44
2413.06	40
2413.99	38
2414.91	40
2415.83	37.5
2416.75	38.5
2417.68	37.5
2418.6	40.5
2419.52	41
2420.44	37.5
2421.36	41.5
2422.28	38
2423.2	35
2424.12	41
2425.05	41.5
2425.97	37
2426.89	37.5
2427.81	39.5
2428.73	42.5
2429.65	39
2430.57	41
2431.49	42
2432.41	46
2433.33	36
2434.25	37
2435.17	36.5
2436.08	39
2437	40.5
2437.92	35
2438.84	40
2439.76	34
2440.68	38
2441.6	37
2442.51	37
2443.43	44
2444.35	35.5
2445.27	44.5
2446.19	41.5
2447.1	37
2448.02	40.5
2448.94	38
2449.85	41
2450.77	41
2451.69	35
2452.61	36
2453.52	38.5
2454.44	41
2455.35	36.5
2456.27	40
2457.19	41
2458.1	40
2459.02	39.5
2459.94	39.5
2460.85	39
2461.77	39
2462.68	40
2463.6	40
2464.51	41
2465.43	38.5
2466.34	40
2467.25	38
2468.17	40
2469.08	39
2470	38.5
2470.91	35.5
2471.83	40.5
2472.74	40.5
2473.65	36
2474.57	34
2475.48	36
2476.39	40.5
2477.31	40
2478.22	34.5
2479.13	43
2480.04	37
2480.96	40.5
2481.87	36
2482.78	38
2483.69	37.5
2484.6	43
2485.52	41
2486.43	41
2487.34	38.5
2488.25	43
2489.16	38.5
2490.07	41
2490.99	41.5
2491.9	44
2492.81	42.5
2493.72	43
2494.63	43
2495.54	42
2496.45	41.5
2497.36	42
2498.27	40
2499.18	38
2500.09	39
2501	42
2501.91	39
2502.82	36.5
2503.73	37
2504.63	46.5
2505.54	38.5
2506.45	41
2507.36	40.5
2508.27	37.5
2509.18	41.5
2510.09	36.5
2510.99	38
2511.9	42.5
2512.81	37.5
2513.72	37
2514.62	33.5
2515.53	38
2516.44	41.5
2517.35	34
2518.25	40.5
2519.16	38.5
2520.07	39.5
2520.97	38
2521.88	40.5
2522.79	38.5
2523.69	36.5
2524.6	40
2525.51	42.5
2526.41	40.5
2527.32	34
2528.22	39.5
2529.13	37.5
2530.03	35.5
2530.94	33
2531.84	40
2532.75	41.5
2533.65	37.5
2534.56	39.5
2535.46	43
2536.37	41.5
2537.27	35.5
2538.17	39.5
2539.08	34.5
2539.98	41
2540.89	39
2541.79	37.5
2542.69	36.5
2543.6	37
2544.5	35
2545.4	38.5
2546.31	36.5
2547.21	38
2548.11	40.5
2549.01	37
2549.92	33.5
2550.82	42.5
2551.72	35
2552.62	37.5
2553.52	41
2554.42	39
2555.33	37
2556.23	34
2557.13	40
2558.03	40.5
2558.93	37.5
2559.83	38
2560.73	41.5
2561.63	36
2562.53	38.5
2563.43	39.5
2564.33	35
2565.24	34
2566.13	45
2567.04	38
2567.93	38
2568.83	41
2569.73	39
2570.63	34
2571.53	36
2572.43	35
2573.33	33
2574.23	36.5
2575.13	36.5
2576.03	39
2576.92	35.5
2577.82	37.5
2578.72	40
2579.62	32.5
2580.52	39
2581.41	37
2582.31	36.5
2583.21	38.5
2584.11	30.5
2585	36
2585.9	34
2586.8	37.5
2587.69	34.5
2588.59	40
2589.49	34.5
2590.38	38
2591.28	38
2592.18	37.5
2593.07	39
2593.97	39.5
2594.86	32.5
2595.76	36
2596.66	40
2597.55	36
2598.45	34.5
2599.34	41.5
2600.24	38.5
2601.13	36
2602.03	34
2602.92	39.5
2603.81	33
2604.71	42.5
2605.6	40
2606.5	36
2607.39	36
2608.28	36
2609.18	38.5
2610.07	35.5
2610.97	39.5
2611.86	32
2612.75	36.5
2613.64	39.5
2614.54	36
2615.43	38
2616.32	37.5
2617.22	33
2618.11	38
2619	36.5
2619.89	36.5
2620.78	35
2621.68	38
2622.57	38
2623.46	38
2624.35	39
2625.24	35
2626.13	35
2627.02	34.5
2627.91	40.5
2628.81	38.5
2629.7	35.5
2630.59	38
2631.48	36
2632.37	38
2633.26	41
2634.15	37.5
2635.04	36.5
2635.93	36.5
2636.82	34
2637.71	35
2638.59	33
2639.48	34
2640.37	37.5
2641.26	35.5
2642.15	37
2643.04	38.5
2643.93	37
2644.82	40
2645.71	38.5
2646.59	38
2647.48	33.5
2648.37	37
2649.26	37
2650.15	38
2651.03	37
2651.92	33
2652.81	35.5
2653.69	35.5
2654.58	40
2655.47	36
2656.35	38.5
2657.24	36
2658.13	36.5
2659.01	37.5
2659.9	38.5
2660.79	35
2661.67	39
2662.56	37
2663.44	34
2664.33	38.5
2665.22	37.5
2666.1	37
2666.99	36
2667.87	36
2668.76	36
2669.64	37.5
2670.52	40
2671.41	36
2672.29	37
2673.18	32
2674.06	39
2674.95	37.5
2675.83	41
2676.71	35.5
2677.6	36.5
2678.48	37.5
2679.36	38
2680.25	39
2681.13	33
2682.01	42.5
2682.9	33
2683.78	36
2684.66	36.5
2685.55	38.5
2686.43	38.5
2687.31	36.5
2688.19	37
2689.07	36
2689.96	36
2690.84	37
2691.72	35.5
2692.6	34.5
2693.48	36.5
2694.36	41.5
2695.24	33
2696.12	39
2697	39.5
2697.89	36
2698.77	39
2699.65	34
2700.53	37
2701.41	36.5
2702.29	37
2703.17	41
2704.05	39
2704.93	33.5
2705.81	37.5
2706.69	34
2707.57	34.5
2708.44	37
2709.32	32
2710.2	37
2711.08	37.5
2711.96	37.5
2712.84	37.5
2713.72	39
2714.59	36
2715.47	37
2716.35	36
2717.23	40
2718.11	38
2718.98	43.5
2719.86	36.5
2720.74	35
2721.62	36
2722.49	37
2723.37	35.5
2724.25	40.5
2725.12	41
2726	32.5
2726.88	40
2727.75	35
2728.63	39.5
2729.51	37.5
2730.38	36.5
2731.26	35.5
2732.13	38
2733.01	39
2733.88	35
2734.76	33
2735.63	32
2736.51	34
2737.38	40
2738.26	41
2739.13	38
2740.01	34
2740.88	38
2741.76	32
2742.63	35
2743.5	40.5
2744.38	34
2745.25	36
2746.13	40.5
2747	38.5
2747.87	36.5
2748.75	38.5
2749.62	39.5
2750.49	35
2751.36	37.5
2752.24	39.5
2753.11	34
2753.98	39.5
2754.86	36.5
2755.73	37
2756.6	39.5
2757.47	35
2758.34	39.5
2759.22	34.5
2760.09	39
2760.96	37
2761.83	36
2762.7	41
2763.57	39
2764.44	38
2765.31	40
2766.18	40.5
2767.06	36.5
2767.93	34.5
2768.8	42
2769.67	43.5
2770.54	37.5
2771.41	39.5
2772.28	42
2773.15	39
2774.02	44.5
2774.89	46.5
2775.75	42.5
2776.62	46
2777.49	44.5
2778.36	44.5
2779.23	41
2780.1	46
2780.97	42
2781.84	46.5
2782.71	43.5
2783.57	49.5
2784.44	48
2785.31	51.5
2786.18	44.5
2787.04	47
2787.91	46
2788.78	50
2789.65	47
2790.51	45.5
2791.38	51
2792.25	60
2793.12	50.5
2793.98	53
2794.85	55
2795.72	53
2796.58	57.5
2797.45	60
2798.31	53.5
2799.18	60.5
2800.05	52
2800.91	55.5
2801.78	53.5
2802.64	55
2803.51	53
2804.37	56
2805.24	55
2806.1	54
2806.97	50.5
2807.83	55
2808.7	55
2809.56	58
2810.43	55.5
2811.29	55.5
2812.15	50.5
2813.02	56
2813.88	55.5
2814.75	54.5
2815.61	56.5
2816.47	56
2817.34	61
2818.2	55.5
2819.06	57
2819.92	54
2820.79	57.5
2821.65	55
2822.51	52
2823.37	51
2824.24	54.5
2825.1	58.5
2825.96	48
2826.82	55
2827.69	56
2828.55	55
2829.41	57
2830.27	55
2831.13	55
2831.99	55
2832.85	57.5
2833.71	55
2834.58	55.5
2835.44	54
2836.3	55.5
2837.16	55.5
2838.02	52.5
2838.88	55
2839.74	55.5
2840.6	58
2841.46	61.5
2842.32	59
2843.18	61
2844.04	57
2844.9	55
2845.75	60
2846.61	56.5
2847.47	58
2848.33	55
2849.19	51.5
2850.05	55
2850.91	55
2851.77	58.5
2852.62	53
2853.48	57
2854.34	59.5
2855.2	58.5
2856.06	60
2856.91	63.5
2857.77	60.5
2858.63	60
2859.48	61.5
2860.34	65
2861.2	64.5
2862.06	67.5
2862.91	63
2863.77	62.5
2864.63	68
2865.48	65
2866.34	69.5
2867.19	75
2868.05	77.5
2868.91	78
2869.76	77
2870.62	83
2871.47	79
2872.33	87
2873.18	89
2874.04	92.5
2874.89	91.5
2875.75	98
2876.6	100.5
2877.46	101
2878.31	101.5
2879.17	101.5
2880.02	110.5
2880.88	110
2881.73	113
2882.58	121.5
2883.44	123
2884.29	130
2885.14	136
2886	138
2886.85	143
2887.7	157.5
2888.56	167
2889.41	171
2890.26	177.5
2891.12	185.5
2891.97	207
2892.82	211.5
2893.67	227
2894.52	233
2895.38	254
2896.23	278.5
2897.08	293.5
2897.93	310
2898.78	341
2899.64	366
2900.49	388
2901.34	410
2902.19	430
2903.04	451.5
2903.89	464
2904.74	491.5
2905.59	508.5
2906.44	490.5
2907.29	503.5
2908.14	489
2908.99	488
2909.84	453
2910.69	422.5
2911.54	408
2912.39	377
2913.24	339
2914.09	322
2914.94	297
2915.79	273.5
2916.64	254.5
2917.49	230
2918.34	214
2919.18	192
2920.03	184
2920.88	177
2921.73	171.5
2922.58	145.5
2923.42	138
2924.27	129
2925.12	132.5
2925.97	125
2926.82	119
2927.66	114.5
2928.51	105
2929.36	103
2930.2	97
2931.05	94
2931.9	86
2932.74	91.5
2933.59	90
2934.44	84
2935.28	89.5
2936.13	90.5
2936.98	85.5
2937.82	85
2938.67	82
2939.51	84
2940.36	76.5
2941.2	82
2942.05	81.5
2942.9	83
2943.74	82
2944.58	86.5
2945.43	83
2946.27	85.5
2947.12	84
2947.96	88
2948.81	92
2949.65	97
2950.5	95
2951.34	97.5
2952.18	100
2953.03	110.5
2953.87	120.5
2954.71	123
2955.56	133.5
2956.4	140.5
2957.24	149.5
2958.09	158.5
2958.93	171.5
2959.77	171.5
2960.62	192
2961.46	207.5
2962.3	218.5
2963.14	226.5
2963.98	227
2964.83	228
2965.67	239.5
2966.51	234.5
2967.35	230
2968.19	222.5
2969.04	222.5
2969.88	201.5
2970.72	203
2971.56	188.447
2972.4	180.306
2973.24	177.714
2974.08	162.318
2974.92	153.177
2975.76	150.993
2976.6	134.086
2977.44	127.447
2978.28	119.849
2979.12	117.333
2979.96	103.709
2980.8	105.367
2981.64	95.4639
2982.48	96.633
2983.32	89.1266
2984.16	85.8492
2985	82.9441
2985.84	72.5317
2986.68	75.066
2987.52	78.7341
2988.35	76.6892
2989.19	65.9926
2990.03	65.8753
2990.87	68.8902
2991.71	62.7879
2992.55	58.5215
2993.38	60.546
2994.22	56.7583
2995.06	60.3177
2995.9	57.0226
2996.73	53.9586
2997.57	51.8983
2998.41	49.5568
2999.25	48.4318
3000.08	52.7038
3000.92	51.3447
3001.76	50.5782
3002.59	49.682
3003.43	50.8602
3004.27	47
3005.1	47.7294
3005.94	47.4291
3006.78	46.6919
3007.61	44.9106
3008.45	43.3416
3009.28	42.5782
3010.12	42.0522
3010.95	43.5865
3011.79	43.9157
3012.62	44.248
3013.46	46.6278
3014.29	44.25
3015.13	46.0134
3015.96	43.554
3016.8	41.0447
3017.63	43.33
3018.47	42.1335
3019.3	41.032
3020.14	40.975
3020.97	40.8695
3021.8	42.8877
3022.64	41.1942
3023.47	40.5011
3024.3	39.9137
3025.14	40.7253
3025.97	41.669
3026.8	41.2147
3027.64	42.2469
3028.47	42.1296
3029.3	40.4066
3030.14	37.9329
3030.97	37.5501
3031.8	40.0969
3032.63	39.165
3033.46	37.0687
3034.3	37.2074
3035.13	38.8306
3035.96	38.6177
3036.79	38.147
3037.62	37.0729
3038.46	37.7843
3039.29	39.4955
3040.12	40.321
3040.95	38.146
3041.78	38.1686
3042.61	36.6652
3043.44	36.7455
3044.27	37.6045
3045.1	39.1671
3045.93	39.6068
3046.76	37.3512
3047.59	36.8393
3048.42	39.6906
3049.25	38.9563
3050.08	35.4951
3050.91	35.3697
3051.74	39.0828
3052.57	35.9619
3053.4	36.4676
3054.23	39.9304
3055.06	34.7872
3055.89	38.2162
3056.72	40.504
3057.32	35.5
3058.15	37
3058.98	39
3059.82	33.5
3060.65	36
3061.48	35.5
3062.31	40.5
3063.15	39
3063.98	38
3064.81	38.5
3065.64	40
3066.48	35
3067.31	31.5
3068.14	36
3068.97	38.5
3069.8	38.5
3070.63	35
3071.47	34
3072.3	37
3073.13	36
3073.96	35
3074.79	41
3075.62	35
3076.45	41
3077.28	30
3078.11	37.5
3078.94	37.5
3079.77	37
3080.6	36
3081.43	34.5
3082.26	45
3083.09	35
3083.92	38.5
3084.75	36
3085.58	36.5
3086.41	40
3087.24	40
3088.07	39
3088.9	38
3089.73	36
3090.55	38.5
3091.38	37
3092.21	38
3093.04	35.5
3093.87	39
3094.7	42
3095.52	41
3096.35	35.5
3097.18	42.5
3098.01	40
3098.84	39
3099.66	36
3100.49	37.5
3101.32	36.5
3102.14	37
3102.97	36.5
3103.8	38
3104.62	37
3105.45	36.5
3106.28	34
3107.1	39.5
3107.93	41.5
3108.76	40
3109.58	39.5
3110.41	38.5
3111.23	39
3112.06	41
3112.89	36
3113.71	39.5
3114.54	35.5
3115.36	39.5
3116.19	35
3117.01	38
3117.84	39
3118.66	42
3119.49	35
3120.31	31
3121.13	39.5
3121.96	40
3122.78	40.5
3123.61	38.5
3124.43	37
3125.25	36
3126.08	36
3126.9	36.5
3127.73	35
3128.55	34
3129.37	36
3130.19	37
3131.02	32
3131.84	37
3132.66	35
3133.49	38.5
3134.31	33.5
3135.13	38.5
3135.95	34.5
3136.78	33.5
3137.6	37.5
3138.42	37
3139.24	40
3140.06	42.5
3140.88	43.5
3141.71	33.5
3142.53	35
3143.35	33
3144.17	37
3144.99	35
3145.81	32
3146.63	35
3147.45	33
3148.27	39
3149.09	33.5
3149.91	34.5
3150.73	34.5
3151.56	35
3152.37	37.5
3153.2	37
3154.01	30
3154.83	33.5
3155.65	32
3156.47	35.5
3157.29	34.5
3158.11	33.5
3158.93	32
3159.75	36
3160.57	33
3161.39	36.5
3162.21	32
3163.02	30.5
3163.84	31.5
3164.66	31
3165.48	34.5
3166.3	37
3167.11	33
3167.93	32.5
3168.75	38
3169.57	36
3170.39	34
3171.2	37
3172.02	30.5
3172.84	35.5
3173.65	32
3174.47	30.5
3175.29	35.5
3176.1	31
3176.92	32
3177.74	33.5
3178.55	35
3179.37	33.5
3180.19	34
3181	32
3181.82	31
3182.63	33.5
3183.45	31
3184.27	32
3185.08	37.5
3185.9	29.5
3186.71	32
3187.53	35
3188.34	32.5
3189.16	28.5
3189.97	31
3190.79	33.5
3191.6	31.5
3192.41	34.5
3193.23	33
3194.04	34.5
3194.86	34.5
3195.67	36
3196.48	34
3197.3	30.5
3198.11	33
3198.93	32
3199.74	31
3200.55	32
3201.36	30.5
3202.18	32.5
3202.99	31.5
3203.8	27
3204.62	31
3205.43	31
3206.24	33
3207.05	35
3207.87	32
3208.68	29.5
3209.49	28.5
3210.3	33.5
3211.11	31
3211.93	30
3212.74	34.5
3213.55	28
3214.36	30.5
3215.17	34
3215.98	34
3216.79	34
3217.6	34.5
3218.41	33
3219.22	33.5
3220.03	35
3220.85	33.5
3221.66	31.5
3222.47	30
3223.28	34.5
3224.09	33.5
3224.9	34.5
3225.71	29.5
3226.52	32.5
3227.33	33
3228.13	29
3228.94	31.5
3229.75	34
3230.56	31.5
3231.37	34.5
3232.18	33
3232.99	35.5
3233.8	33
3234.61	27
3235.41	35.5
3236.22	32
3237.03	33.5
3237.84	32
3238.65	26
3239.45	33
3240.26	29.5
3241.07	31.5
3241.88	27
3242.68	32.5
3243.49	33.5
3244.3	29
3245.1	30
3245.91	31.5
3246.72	29
3247.53	28
3248.33	29.5
3249.14	29
3249.95	28
3250.75	31
3251.56	34.5
3252.36	30
3253.17	28.5
3253.97	34.5
3254.78	32
3255.59	32
3256.39	34.5
3257.2	31.5
3258	31.5
3258.81	30
3259.61	29.5
3260.42	28
3261.22	31.5
3262.03	35
3262.83	27.5
3263.64	35
3264.44	31
3265.24	31.5
3266.05	31
3266.85	31
3267.66	34
3268.46	33.5
3269.26	32.5
3270.07	29
3270.87	30
3271.67	31.5
3272.48	35.5
3273.28	32.5
3274.08	27
3274.89	32
3275.69	27.5
3276.49	29
3277.29	30.5
3278.1	32.5
3278.9	31.5
3279.7	31
3280.5	30
3281.3	31
3282.11	35
3282.91	32
3283.71	32
3284.51	27
3285.31	34.5
3286.11	31.5
3286.91	30
3287.72	32
3288.52	28.5
3289.32	29
3290.12	32.5
3290.92	32
3291.72	31
3292.52	32.5
3293.32	37.5
3294.12	32
3294.92	30.5
3295.72	29.5
3296.52	28
3297.32	32.5
3298.12	29.5
3298.92	29
3299.72	32
3300.52	30
3301.32	31
3302.12	31.5
3302.92	33
3303.71	27
3304.51	33
3305.31	30
3306.11	34
3306.91	29
3307.71	30
3308.5	33.5
3309.3	27.5
3310.1	31.5
3310.9	33
3311.7	28.5
3312.49	33.5
3313.29	29
3314.09	33
3314.89	33
3315.68	34.5
3316.48	33.5
3317.28	35
3318.07	25
3318.87	31
3319.67	35
3320.46	32
3321.26	26.5
3322.06	28
3322.85	31
3323.65	35
3324.44	34
3325.24	33
3326.04	30.5
3326.83	31
3327.63	34
3328.42	32.5
3329.22	30
3330.01	24
3330.81	32.5
3331.6	32.5
3332.4	28
3333.19	30.5
3333.99	30.5
3334.78	28
3335.58	28.5
3336.37	32.5
3337.17	32
3337.96	31
3338.75	31.5
3339.55	30
3340.34	31
3341.13	33.5
3341.93	35
3342.72	33.5
3343.51	31
3344.31	32.5
3345.1	30
3345.89	31.5
3346.69	28
3347.48	34
3348.27	27.5
3349.06	32.5
3349.86	28.5
3350.65	31.5
3351.44	33
3352.23	31
3353.03	31.5
3353.82	32.5
3354.61	31
3355.4	33
3356.19	31.5
3356.98	28.5
3357.78	28
3358.57	26
3359.36	30
3360.15	33.5
3360.94	30
3361.73	29.5
3362.52	30
3363.31	31
3364.1	31
3364.89	31
3365.68	31
3366.47	30
3367.26	31.5
3368.05	31
3368.84	31.5
3369.63	26
3370.42	33
3371.21	32.5
3372	30
3372.79	32.5
3373.58	30.5
3374.37	27
3375.16	30
3375.95	34
3376.73	27
3377.52	32.5
3378.31	33.5
3379.1	30
3379.89	31.5
3380.68	31
3381.46	32
3382.25	30.5
3383.04	34.5
3383.83	27.5
3384.62	28
3385.4	30
3386.19	31.5
3386.98	29.5
3387.76	29.5
3388.55	31
3389.34	28
3390.13	34.5
3390.91	31.5
3391.7	25.5
3392.49	30.5
3393.27	31
3394.06	32.5
3394.84	34.5
3395.63	31
3396.42	31.5
3397.2	31.5
3397.99	30
3398.77	30
3399.56	26.5
3400.34	28
3401.13	31.5
3401.92	34
3402.7	35
3403.49	33
3404.27	31
3405.06	28.5
3405.84	31.5
3406.62	31.5
3407.41	26.5
3408.19	30.5
3408.98	32.5
3409.76	27.5
3410.55	31
3411.33	30
3412.11	28
3412.9	30
3413.68	33
3414.46	31.5
3415.25	26.5
3416.03	29
3416.81	31
3417.6	28
3418.38	33
3419.16	29
3419.95	27.5
3420.73	30.5
3421.51	28
3422.29	31.5
3423.08	30
3423.86	30.5
3424.64	34
3425.42	24
3426.2	27
3426.98	27.5
3427.77	30.5
3428.55	26.5
3429.33	28.5
3430.11	27.5
3430.89	29.5
3431.67	33
3432.45	28
3433.24	32
3434.02	28
3434.8	32
3435.58	28.5
3436.36	30
3437.14	27
3437.92	26
3438.7	28.5
3439.48	28
3440.26	30
3441.04	27.5
3441.82	28.5
3442.6	29.5
3443.38	24
3444.16	27.5
3444.94	24
3445.71	33.5
3446.49	29
3447.27	29.5
3448.05	29.5
3448.83	26.5
3449.61	30
3450.39	31.5
3451.17	30.5
3451.94	31.5
3452.72	29
3453.5	28
3454.28	27
3455.06	27
3455.83	32
3456.61	29.5
3457.39	25.5
3458.17	27.5
3458.94	27.5
3459.72	26
3460.5	28
3461.28	29
3462.05	32
3462.83	27.5
3463.61	31
3464.38	25
3465.16	31
3465.93	29.5
3466.71	30
3467.49	28
3468.26	28
3469.04	32.5
3469.82	29
3470.59	28.5
3471.37	25
3472.14	29.5
3472.92	28.5
3473.69	31
3474.47	27
3475.24	29
3476.02	30.5
3476.79	26.5
3477.57	32
3478.34	27
3479.12	29
3479.89	27
3480.67	32
3481.44	32
3482.21	28
3482.99	29
3483.76	32.5
3484.54	28.5
3485.31	27
3486.08	29.5
3486.86	35.5
3487.63	27
3488.4	28.5
3489.18	28
3489.95	29.5
3490.72	26.5
3491.5	32
3492.27	25
3493.04	28
3493.81	31
3494.59	30.5
3495.36	27.5
3496.13	28
3496.9	28
3497.67	28
3498.45	31.5
3499.22	28
3499.99	30
