#Acq. time (s)=	5
#Accumulations=	5
#Range (cm-¹)=	100...3500
#Windows=	4
#Autofocus=	Off
#AutoExposure=	Off
#Spike filter=	Multiple accum.
#Delay time (s)=	0
#Binning=	1
#Readout mode=	Signal
#DeNoise=	Off
#ICS correction=	Off
#Dark correction=	Off
#Inst. Process=	Off
#Instrument=	LabRAM HR Evol
#Detector=	Syncerity OE
#Objective=	x100_VIS
#Grating=	600 (500nm)
#ND Filter=	25%
#Laser=	633nm_Edge
#Hole=	100.021
#Range=	Visible
#Project=	verificaciones
#Sample=	a4
#Site=	lined
#Title=	bolusa4lined
#Remark=	
#Date=	09.01.2026 15:32
#Acquired=	09.01.2026 15:32:02
100.695	78.5
101.978	92
103.262	90.5
104.545	83.5
105.829	92
107.112	88
108.394	84
109.676	90
110.958	92
112.24	84
113.522	89
114.803	89
116.084	91.5
117.365	94
118.646	87.5
119.927	95.5
121.207	103.5
122.487	100.5
123.767	107
125.047	102
126.326	117.5
127.606	112
128.885	107
130.164	117.5
131.442	116
132.721	124
133.999	126.5
135.277	127.5
136.555	130.5
137.831	132
139.109	135
140.386	150
141.663	148.5
142.94	134.5
144.216	147.5
145.493	156
146.769	161
148.043	166
149.319	167
150.595	168.5
151.87	171.5
153.145	177
154.42	179
155.693	192
156.968	180.5
158.242	188
159.516	178
160.79	181.5
162.062	169
163.336	174.5
164.609	175
165.882	179
167.153	163.5
168.426	173.5
169.699	164
170.971	170.5
172.241	164
173.513	162
174.785	172
176.055	165
177.326	169
178.597	171.5
179.866	173
181.137	167.5
182.407	170.5
183.676	166
184.946	176
186.216	182
187.484	178.5
188.753	177.5
190.022	182
191.29	179
192.558	180
193.825	172.5
195.094	184
196.36	168
197.628	171
198.896	157
200.162	153
201.429	150
202.695	149
203.962	143.5
205.227	137
206.493	141
207.758	133.5
209.024	132.5
210.289	129.5
211.554	128.5
212.818	123.5
214.083	122.5
215.347	118
216.612	115.5
217.875	121.5
219.138	119.5
220.402	104.5
221.665	109.5
222.928	104
224.19	102
225.454	106
226.715	105.5
227.977	105.5
229.24	96.5
230.501	88
231.762	108
233.024	87
234.284	98
235.546	90.5
236.806	93
238.066	91
239.327	91.5
240.587	90.5
241.846	91
243.105	95
244.365	90
245.624	88
246.882	87
248.142	85
249.4	88
250.658	84
251.916	88
253.174	81
254.432	88.5
255.689	86
256.945	82.5
258.202	83
259.46	82.5
260.716	80.5
261.972	85
263.228	78.5
264.483	87
265.74	78
266.996	80
268.251	78
269.505	74
270.76	78
272.014	75
273.268	77
274.522	82
275.778	71
277.031	78.5
278.285	68.5
279.538	75
280.791	74.5
282.043	80
283.296	76
284.548	76
285.8	69
287.052	71
288.304	72
289.556	73
290.807	73.5
292.058	74.5
293.309	75
294.56	73
295.81	78
297.061	71
298.311	74
299.561	70
300.81	76.5
302.06	76
303.309	76
304.558	73.5
305.807	75.5
307.056	72.5
308.305	73
309.551	75.5
310.8	75
312.047	80
313.295	75
314.543	74
315.79	75.5
317.037	72.5
318.284	80
319.529	73.5
320.776	70
322.022	73
323.268	75.5
324.514	71.5
325.758	79.5
327.004	71.5
328.249	73
329.494	74.5
330.739	71
331.982	74
333.227	71.5
334.471	76.5
335.715	70
336.958	75.5
338.201	74.5
339.445	76.5
340.687	70
341.93	73
343.173	78
344.414	75
345.657	75
346.899	75
348.14	73
349.381	75
350.623	65.5
351.863	71
353.104	73.5
354.346	72
355.585	69.5
356.826	68
358.065	73
359.305	68
360.545	74
361.784	71.5
363.023	69.5
364.261	66.5
365.501	73.5
366.738	80
367.977	70
369.216	71
370.453	69.5
371.691	70.5
372.928	62.5
374.166	75
375.402	74.5
376.64	66
377.876	67.5
379.111	68
380.348	70.5
381.584	69.5
382.82	65
384.055	69
385.291	64
386.526	74
387.76	65.5
388.996	71
390.229	65
391.465	69
392.698	74.5
393.931	63
395.166	66.5
396.399	66.5
397.632	67.5
398.866	70.5
400.098	67
401.33	65.5
402.563	65
403.795	64.5
405.027	67.5
406.259	58.5
407.491	67
408.721	65
409.954	69.5
411.184	72
412.415	67.5
413.645	70
414.876	66.5
416.106	62
417.335	67.5
418.565	64.5
419.794	68.5
421.024	71.5
422.253	71.5
423.482	68.5
424.71	68.5
425.938	69.5
427.168	68.5
428.396	68.5
429.623	66
430.851	64
432.078	70.5
433.305	69.5
434.532	68
435.758	68
436.986	68
438.212	67.5
439.438	71
440.664	62
441.89	68.5
443.115	80
444.34	68.5
445.566	70.5
446.79	74
448.015	72
449.24	76.5
450.464	77
451.688	75
452.912	70
454.135	74
455.359	79
456.582	81.5
457.805	81.5
459.028	75
460.251	81
461.473	81
462.696	86.5
463.918	88
465.14	97
466.36	98.5
467.582	108
468.803	106
470.024	118
471.245	123.5
472.466	134.5
473.686	138
474.907	152.5
476.126	160
477.346	180.5
478.565	208
479.785	217.5
481.004	249.5
482.224	268
483.441	286
484.66	307.5
485.879	319.5
487.097	344
488.314	351
489.532	350
490.75	333.5
491.967	330
493.184	321
494.401	301
495.618	285
496.835	273.5
498.05	247
499.267	236.5
500.483	213.5
501.698	201
502.913	189
504.129	176
505.343	167
506.559	153
507.774	150.5
508.987	134.5
510.202	141.5
511.415	133.5
512.63	121
513.844	116
515.056	116
516.27	118
517.482	107.5
518.696	108.5
519.907	102
521.121	106
522.332	95
523.545	91.5
524.757	86
525.968	94
527.18	87
528.39	84
529.602	88.5
530.812	84.5
532.023	85.5
533.233	78
534.443	81.5
535.653	78.5
536.862	81
538.073	83
539.281	80.5
540.491	79.5
541.7	78.5
542.908	79.5
544.117	76.5
545.325	74
546.534	75
547.741	79
548.949	72
550.157	68.5
551.364	68.5
552.57	70.5
553.778	77
554.985	75.5
556.191	72.5
557.398	71.5
558.604	73
559.809	69.5
561.014	68
562.221	70.5
563.426	70.5
564.63	66
565.835	68.5
567.041	71.5
568.245	70.5
569.449	73
570.653	67
571.856	65
573.061	68.5
574.264	65.5
575.467	62
576.67	66
577.873	66
579.076	69
580.279	64.5
581.481	65
582.683	66
583.884	71
585.086	67.5
586.287	63.5
587.488	63
588.689	63.5
589.891	67.5
591.092	63
592.292	62
593.492	66
594.692	64
595.892	64
597.092	70
598.291	64.5
599.49	76
600.689	68.5
601.888	63
603.087	64.5
604.285	68
605.483	63.5
606.681	73
607.879	74
609.077	70.5
610.274	71
611.472	66.5
612.668	73
613.865	69.5
615.061	66.5
616.258	65
617.454	65.5
618.65	70
619.846	59.5
621.042	70.5
622.238	66.5
623.432	67
624.627	69.5
625.822	67.5
627.017	62
628.212	67
629.406	66.5
630.599	75.5
631.793	64
632.987	69.5
634.181	65
635.373	71
636.566	67.5
637.76	72
638.953	70
640.144	73.5
641.337	70
642.529	77
643.721	72
644.912	74
646.104	74
647.295	72.5
648.485	70.5
649.677	71
650.868	69
652.057	69
653.248	67.5
654.437	68
655.628	75.5
656.818	70
658.006	69
659.196	64
660.384	77.5
661.574	74
662.763	73.5
663.951	71.5
665.14	82.5
666.327	74.5
667.515	80
668.702	83.5
669.891	77.5
671.077	82.5
672.265	77.5
673.451	83.5
674.638	84.5
675.824	82
677.011	92
678.197	91.5
679.383	97
680.568	106.5
681.755	112
682.939	120
684.124	128
685.309	129
686.494	131.5
687.679	123
688.863	125.5
690.046	113
691.231	108
692.414	117.5
693.599	110.5
694.781	118
695.964	127.5
697.148	125.5
698.33	126
699.512	135.5
700.694	142
701.877	153.5
703.059	167
704.24	187
705.423	211
706.604	238
707.784	252.5
708.965	271
710.147	264
711.327	239
712.507	212
713.687	176
714.867	147.5
716.048	121.5
717.227	116.5
718.406	99.5
719.585	94
720.764	85
721.942	86.5
723.122	78
724.3	76
725.478	71.5
726.656	76
727.834	71
729.011	68.5
730.189	74
731.366	69.5
732.543	64
733.719	66
734.896	70.5
736.072	71.5
737.249	66.5
738.426	63
739.602	66.5
740.777	65
741.953	63
743.128	64
744.303	64
745.477	68.5
746.651	61.5
747.826	65.5
749	69
750.174	65.5
751.348	66.5
752.522	64.5
753.696	67
754.869	66
756.043	58
757.216	62.5
758.389	61.5
759.561	66
760.732	58
761.905	63
763.077	62
764.249	63.5
765.421	64.5
766.592	64.5
767.762	68
768.934	70
770.105	66.5
771.275	62.5
772.446	68.5
773.615	74
774.786	70
775.956	72.5
777.126	69.5
778.294	73.5
779.464	79
780.633	78
781.801	80.5
782.97	84.5
784.139	82.5
785.306	87
786.475	95.5
787.643	95.5
788.81	94
789.978	87.5
791.146	92.5
792.312	88.5
793.479	84.5
794.647	79.5
795.812	83
796.979	84
798.144	82.5
799.311	76
800.477	78
801.642	79.5
802.808	69
803.972	72
805.138	67.5
806.302	67.5
807.467	65.5
808.631	70
809.796	67.5
810.959	66
812.124	64
813.287	66.5
814.451	71.5
815.614	70.5
816.777	69
817.94	62
819.102	64
820.265	61.5
821.427	66
822.59	66
823.751	62.5
824.912	58.5
826.074	63
827.235	54
828.397	65
829.558	62
830.718	66
831.879	58.5
833.039	60.5
834.199	63.5
835.359	64.5
836.519	64
837.679	69
838.838	68.5
839.998	61.5
841.156	63.5
842.315	63.5
843.473	69.5
844.633	64
845.791	61.5
846.948	68
848.106	63.5
849.263	62.5
850.422	64.5
851.579	66
852.736	72.5
853.892	71
855.049	68.5
856.205	74
857.363	76
858.519	77
859.674	75.5
860.83	76
861.986	80
863.141	75.5
864.296	72
865.451	69
866.605	75
867.76	72.5
868.914	82
870.069	73
871.224	67
872.378	65.5
873.531	70
874.685	68
875.838	69
876.991	65.5
878.144	68.5
879.296	67
880.448	66
881.6	67.5
882.753	66.5
883.905	62
885.057	65.5
886.208	60.5
887.36	60.5
888.511	58
889.662	60
890.813	59
891.964	58
893.113	63.5
894.264	57
895.414	59
896.564	59
897.714	59
898.864	60.5
900.012	59
901.161	62.5
902.31	58.5
903.459	59
904.607	66
905.756	58
906.904	49.5
908.052	49.5
909.199	51
910.347	63.5
911.495	55
912.643	56
913.789	56
914.936	54
916.083	56
917.229	58.5
918.375	57.5
919.522	62
920.667	56
921.813	58.5
922.959	57
924.104	58
925.249	53.5
926.393	55.5
927.539	55
928.684	56
929.827	54.5
930.972	58
932.115	59.5
933.26	55
934.403	55
935.547	54
936.689	56.5
937.833	50.5
938.975	55.5
940.119	56
941.26	55.5
942.404	59.5
943.545	53.5
944.688	56.5
945.829	53.5
946.971	58
948.112	52.5
949.253	57
950.394	58.5
951.535	55.5
952.676	57
953.816	53
954.956	54
956.097	54.5
957.236	53.5
958.377	57
959.516	54
960.655	62
961.793	53
962.933	60
964.071	52.5
965.21	58
966.349	55.5
967.487	58
968.624	54.5
969.762	53.5
970.901	54
972.038	53
973.175	53
974.311	61
975.449	60.5
976.586	56.5
977.722	54.5
978.858	52
979.994	53.5
981.131	56.5
982.267	60.5
983.402	55.5
984.537	58.5
985.672	59.5
986.807	52
987.942	54
989.076	56
990.211	59
991.346	54
992.48	53
993.614	54
994.748	59.5
995.881	55.5
997.014	51.5
998.148	57.5
999.28	60.5
1000.41	52.5
1001.55	56.5
1002.68	56.5
1003.81	54.5
1004.94	50
1006.07	60.5
1007.21	56.5
1008.34	59
1009.47	56
1010.6	52
1011.73	58
1012.86	49
1013.99	52
1015.12	58
1016.25	55
1017.38	57
1018.51	52.5
1019.64	54
1020.77	54
1021.9	50.5
1023.03	57
1024.16	47
1025.29	56.5
1026.42	54.5
1027.54	54.5
1028.67	57
1029.8	51
1030.93	54.5
1032.06	57
1033.18	54.5
1034.31	53
1035.44	52
1036.56	53.5
1037.69	56
1038.82	57
1039.94	54.5
1041.07	57
1042.2	52.5
1043.32	53.5
1044.45	55
1045.57	53
1046.7	53
1047.82	52
1048.95	60.5
1050.07	56
1051.2	60
1052.32	57
1053.45	54
1054.57	53.5
1055.69	61.5
1056.82	46.5
1057.94	57
1059.06	56
1060.19	55
1061.31	55
1062.43	59.5
1063.55	56
1064.68	56
1065.8	54.5
1066.92	54
1068.04	55
1069.16	57
1070.28	55.5
1071.41	56.5
1072.53	52.5
1073.65	57
1074.77	52
1075.89	52.5
1077.01	52.5
1078.13	56
1079.25	54
1080.37	60
1081.49	54.5
1082.61	58.5
1083.73	55
1084.85	53.5
1085.96	50.5
1087.08	57.5
1088.2	54
1089.32	52.5
1090.44	52.5
1091.56	55
1092.67	53
1093.79	50
1094.91	53
1096.03	53.5
1097.14	56
1098.26	56.5
1099.38	55
1100.49	54.5
1101.61	50.5
1102.73	50
1103.84	53
1104.96	54.5
1106.07	53.5
1107.19	51.5
1108.3	53.5
1109.42	54
1110.53	56
1111.65	57.5
1112.76	52.5
1113.88	51
1114.99	52
1116.1	57.5
1117.22	53
1118.33	50.5
1119.44	52
1120.56	55.5
1121.67	56.5
1122.78	57.5
1123.9	50.5
1125.01	50
1126.12	51
1127.23	51
1128.34	52
1129.46	46.5
1130.57	48
1131.68	55
1132.79	52
1133.9	51.5
1135.01	53
1136.12	56.5
1137.23	46.5
1138.34	52
1139.45	51
1140.56	50
1141.67	56
1142.78	48.5
1143.89	53.5
1145	52
1146.11	50
1147.22	55.5
1148.33	51.5
1149.44	51
1150.54	52.5
1151.65	51
1152.76	55
1153.87	48.5
1154.97	53.5
1156.08	58.5
1157.19	55
1158.3	51.5
1159.4	57.5
1160.51	52
1161.62	48.5
1162.72	52
1163.83	55
1164.93	54
1166.04	54
1167.15	50
1168.25	54
1169.36	56
1170.46	50
1171.57	54.5
1172.67	48
1173.78	50.5
1174.88	55
1175.98	56
1177.09	55.5
1178.19	53
1179.3	50
1180.4	54
1181.5	53.5
1182.61	50
1183.71	53.5
1184.81	51
1185.91	55.5
1187.02	50.5
1188.12	57
1189.22	57
1190.32	46
1191.42	47
1192.53	52.5
1193.63	48
1194.73	49.5036
1195.83	55.446
1196.93	52.058
1198.03	52.5362
1199.13	53.3928
1200.23	52.288
1201.33	50.6262
1202.43	52.0364
1203.53	50.2222
1204.63	54.7839
1205.73	52.6016
1206.83	55.6887
1207.93	50.741
1209.02	54.7048
1210.12	51.4885
1211.22	51.329
1212.32	50.4952
1213.42	47.0917
1214.52	52.3582
1215.61	50.7841
1216.71	53.9137
1217.81	53.3275
1218.91	53.2218
1220	53.06
1221.1	47.8705
1222.2	51.8265
1223.29	54.5168
1224.39	52.2029
1225.49	52.8533
1226.58	54.3868
1227.68	53.2316
1228.77	50.3831
1229.87	50.6638
1230.96	51.7691
1232.06	55.6386
1233.15	51.1927
1234.25	52.1781
1235.34	53.9078
1236.44	50.4074
1237.53	50.825
1238.63	51.4924
1239.72	49.2569
1240.81	51.4963
1241.91	52.8332
1243	53.6169
1244.09	51.7724
1245.19	52.1624
1246.28	49.9696
1247.37	54.0282
1248.46	55.1267
1249.56	57.4385
1250.65	59
1251.74	58.4901
1252.83	60.2834
1253.92	63.9228
1255.01	64.0112
1256.11	64.3162
1257.2	63.1722
1258.29	65.1608
1259.38	66.7999
1260.47	67.4056
1261.56	72.3177
1262.65	72.8783
1263.74	71.2514
1264.83	71.0869
1265.92	65.5186
1267.01	61.9057
1268.1	65.73
1269.19	57.7728
1270.27	56.0485
1271.36	57.5467
1272.45	57.6213
1273.54	55.5062
1274.63	52.6869
1275.72	53.0787
1276.8	51.5571
1277.89	55.364
1278.98	52.2306
1280.07	52.9858
1281.15	53.6746
1282.24	53.7184
1283.33	53.3099
1284.41	52.4012
1285.5	51.5438
1286.59	54.7502
1287.67	53.5926
1288.76	51.0683
1289.84	53.288
1290.93	50.8832
1292.01	47.6995
1293.1	52.3771
1294.19	52.3788
1295.27	52.9148
1296.35	50.7843
1297.44	53.4674
1298.52	53.1352
1299.61	53.1057
1300.69	54.7514
1301.78	52.0992
1302.86	51.051
1303.94	52.4648
1305.03	55.1422
1306.11	52.3381
1306.4	51
1307.49	49
1308.57	50.5
1309.66	46
1310.75	52
1311.84	53.5
1312.92	50.5
1314.01	53.5
1315.1	52.5
1316.19	47
1317.27	49.5
1318.36	56
1319.45	50.5
1320.53	49
1321.62	53
1322.7	55
1323.79	46
1324.88	51
1325.96	49.5
1327.05	53.5
1328.13	56
1329.21	49
1330.3	53
1331.38	49.5
1332.47	52.5
1333.55	50.5
1334.64	56.5
1335.72	52.5
1336.8	52
1337.89	52
1338.97	53
1340.05	50.5
1341.14	53.5
1342.22	51
1343.3	52.5
1344.39	52
1345.47	51
1346.55	49.5
1347.63	51
1348.71	51
1349.79	50
1350.88	55.5
1351.96	53.5
1353.04	49.5
1354.12	55
1355.2	58
1356.28	58
1357.36	55.5
1358.44	52
1359.52	52.5
1360.6	58
1361.68	51.5
1362.76	54.5
1363.84	54
1364.92	55.5
1366	51
1367.08	50
1368.16	56.5
1369.23	52
1370.31	50
1371.39	54
1372.47	59
1373.55	57.5
1374.62	55.5
1375.7	58
1376.78	56
1377.85	55
1378.93	55
1380.01	56.5
1381.09	52.5
1382.16	54
1383.24	54.5
1384.31	54
1385.39	60.5
1386.47	59.5
1387.54	60
1388.62	60.5
1389.69	60.5
1390.77	59
1391.84	65
1392.92	64
1393.99	67
1395.06	70
1396.14	72.5
1397.21	78.5
1398.29	71
1399.36	83.5
1400.43	77.5
1401.51	78
1402.58	95.5
1403.65	86
1404.73	89.5
1405.8	95
1406.87	98.5
1407.94	95
1409.02	98.5
1410.09	98
1411.16	98
1412.23	98.5
1413.3	103
1414.37	97
1415.45	92
1416.52	88.5
1417.59	88.5
1418.66	79.5
1419.73	83.5
1420.8	74.5
1421.87	79
1422.94	75
1424.01	70.5
1425.08	68
1426.15	71
1427.22	70.5
1428.29	65
1429.35	66
1430.42	65.5
1431.49	60.5
1432.56	65
1433.63	56
1434.7	59.5
1435.77	59
1436.83	59.5
1437.9	64.5
1438.97	58
1440.04	64
1441.1	62.5
1442.17	62
1443.24	54
1444.3	60
1445.37	55
1446.44	59.5
1447.5	56.5
1448.57	58.5
1449.63	57.5
1450.7	64.5
1451.76	60
1452.83	53.5
1453.89	52
1454.96	50
1456.02	57.5
1457.09	57.5
1458.15	58
1459.22	56.5
1460.28	54
1461.34	61
1462.41	59.5
1463.47	57.5
1464.54	51.5
1465.6	51
1466.66	57
1467.72	53
1468.79	55.5
1469.85	55
1470.91	56.5
1471.97	59
1473.04	58
1474.1	55
1475.16	54.5
1476.22	52
1477.28	58
1478.34	54.5
1479.4	51
1480.47	54
1481.53	55
1482.59	54
1483.65	55.5
1484.71	60
1485.77	61
1486.83	58
1487.89	52.5
1488.95	59
1490.01	59
1491.07	59
1492.12	57
1493.18	55
1494.24	57
1495.3	59
1496.36	54
1497.42	57
1498.47	56
1499.53	51
1500.59	57
1501.65	58.5
1502.7	48
1503.76	54.5
1504.82	52
1505.88	54.5
1506.93	57
1507.99	53.5
1509.05	59.5
1510.1	53.5
1511.16	50
1512.21	54
1513.27	56.5
1514.32	53
1515.38	54.5
1516.43	54.5
1517.49	55
1518.54	53.5
1519.6	51
1520.65	54
1521.71	51
1522.76	57
1523.82	54
1524.87	56
1525.92	51.5
1526.98	55.5
1528.03	56.5
1529.08	56
1530.14	56.5
1531.19	57
1532.24	55.5
1533.3	52.5
1534.35	49.5
1535.4	51.5
1536.45	51.5
1537.5	55
1538.56	49.5
1539.61	46
1540.66	58.5
1541.71	53.5
1542.76	52
1543.81	51
1544.86	56.5
1545.91	56
1546.96	52.5
1548.01	51.5
1549.06	53.5
1550.11	50.5
1551.16	49
1552.21	46.5
1553.26	55.5
1554.31	52
1555.36	53.5
1556.41	60.5
1557.46	53
1558.51	49
1559.55	47
1560.6	49.5
1561.65	55
1562.7	49.5
1563.75	53
1564.79	48.5
1565.84	54
1566.89	56
1567.94	49
1568.98	46
1570.03	55.5
1571.07	53.5
1572.12	51.5
1573.17	52
1574.21	47.5
1575.26	50
1576.31	53.5
1577.35	53
1578.4	51.5
1579.44	51
1580.49	54
1581.53	51.5
1582.58	52
1583.62	50.5
1584.67	53
1585.71	54
1586.75	51.5
1587.8	52.5
1588.84	47
1589.89	47.5
1590.93	49.5
1591.97	54
1593.02	48
1594.06	53
1595.1	54
1596.14	51
1597.19	51
1598.23	57
1599.27	51
1600.31	52
1601.35	55
1602.4	51
1603.44	48
1604.48	50
1605.52	53
1606.56	53.5
1607.6	50
1608.64	50
1609.68	48
1610.72	52
1611.76	50.5
1612.8	50
1613.84	45.5
1614.88	48
1615.92	53
1616.96	52.5
1618	54
1619.04	51
1620.08	49.5
1621.12	48.5
1622.16	52
1623.19	52
1624.23	48
1625.27	45
1626.31	53
1627.35	48.5
1628.38	46
1629.42	49.5
1630.46	49
1631.5	50
1632.53	50
1633.57	46.5
1634.61	51
1635.64	52
1636.68	47
1637.71	51
1638.75	51
1639.79	50
1640.82	49.5
1641.86	53
1642.89	48.5
1643.93	50
1644.96	44
1646	45.5
1647.03	53.5
1648.07	48
1649.1	54.5
1650.14	51
1651.17	52.5
1652.2	45.5
1653.24	43
1654.27	53
1655.3	49.5
1656.34	54
1657.37	48.5
1658.4	46
1659.44	46.5
1660.47	48
1661.5	49
1662.53	47.5
1663.57	46
1664.6	48
1665.63	53
1666.66	46.5
1667.69	49
1668.72	50
1669.75	50.5
1670.79	46.5
1671.82	50
1672.85	49
1673.88	44.5
1674.91	50
1675.94	53.5
1676.97	46
1678	47
1679.03	48
1680.06	48
1681.09	50.5
1682.11	45.5
1683.14	45
1684.17	51
1685.2	52
1686.23	48.5
1687.26	48.5
1688.29	52.5
1689.32	47
1690.34	48
1691.37	46
1692.4	46.5
1693.43	48.5
1694.45	46.5
1695.48	48.5
1696.51	50
1697.53	46
1698.56	46
1699.59	49.5
1700.61	52
1701.64	49.5
1702.66	47
1703.69	44.5
1704.72	50
1705.74	46.5
1706.77	46
1707.79	46
1708.82	46
1709.84	52
1710.87	42.5
1711.89	47
1712.92	48
1713.94	45.5
1714.96	48.5
1715.99	46.5
1717.01	43.5
1718.04	45
1719.06	48
1720.08	49
1721.11	47
1722.13	47.5
1723.15	45.5
1724.17	45
1725.2	44.5
1726.22	45
1727.24	48
1728.26	50
1729.28	49
1730.31	45
1731.33	45.5
1732.35	52
1733.37	47.5
1734.39	44.5
1735.41	42.5
1736.43	49
1737.45	45.5
1738.47	45.5
1739.49	50.5
1740.51	46
1741.53	44.5
1742.55	47.5
1743.57	43.5
1744.59	46
1745.61	45
1746.63	45.5
1747.65	47
1748.67	45
1749.69	44
1750.71	44.5
1751.72	44.5
1752.74	48.5
1753.76	49
1754.78	46
1755.8	48.5
1756.81	46.5
1757.83	44.5
1758.85	47
1759.86	44
1760.88	44.5
1761.9	43.5
1762.91	51
1763.93	47.5
1764.95	43.5
1765.96	48.5
1766.98	48.5
1768	44
1769.01	46
1770.03	42
1771.04	43
1772.06	46
1773.07	49
1774.09	46
1775.1	45.5
1776.12	44
1777.13	42.5
1778.14	45.5
1779.16	48.5
1780.17	48
1781.19	47.5
1782.2	43.5
1783.21	47.5
1784.23	48.5
1785.24	46
1786.25	49.5
1787.27	44.5
1788.28	39
1789.29	48.5
1790.3	47.5
1791.32	45
1792.33	47
1793.34	49.5
1794.35	44
1795.36	45.5
1796.37	42.5
1797.38	45
1798.4	44
1799.41	48.5
1800.42	40
1801.43	50.5
1802.44	47
1803.45	44
1804.46	47
1805.47	47
1806.48	43.5
1807.49	43.5
1808.5	44.5
1809.51	42.5
1810.52	44.5
1811.53	47
1812.53	44
1813.54	47.5
1814.55	44.5
1815.56	42.5
1816.57	43
1817.58	42.5
1818.58	44.5
1819.59	41
1820.6	41.5
1821.61	44.5
1822.61	48
1823.62	43.5
1824.63	42.5
1825.64	39
1826.64	43
1827.65	42.5
1828.66	44
1829.66	46.5
1830.67	50.5
1831.67	46.5
1832.68	49
1833.68	49.5
1834.69	40.5
1835.7	44.5
1836.7	50.5
1837.71	43
1838.71	42.5
1839.71	43
1840.72	46
1841.72	44.5
1842.73	46.5
1843.73	46.5
1844.74	46.5
1845.74	45.5
1846.74	42
1847.75	45
1848.75	45
1849.75	46.5
1850.76	39.5
1851.76	46
1852.76	45.5
1853.76	48
1854.77	48.5
1855.77	44
1856.77	41
1857.77	40
1858.77	46
1859.78	41
1860.78	41.5
1861.78	43.5
1862.78	41.5
1863.78	46
1864.78	43.5
1865.78	44
1866.78	41
1867.78	43
1868.78	44.5
1869.78	44.5
1870.78	48
1871.78	42
1872.78	38.5
1873.78	45
1874.78	50
1875.78	41.5
1876.78	39
1877.78	41
1878.78	44
1879.77	40
1880.77	38
1881.77	47
1882.77	44
1883.77	42
1884.76	43
1885.76	42.5
1886.76	45
1887.76	49
1888.75	41
1889.75	42.5
1890.75	39.5
1891.74	43.5
1892.74	45
1893.74	43.5
1894.73	44.5
1895.73	43
1896.72	38
1897.72	39
1898.72	41
1899.71	41
1900.71	41.5
1901.7	45.5
1902.7	43.5
1903.69	47
1904.69	42.5
1905.68	35
1906.67	44.5
1907.67	40
1908.66	43
1909.66	46
1910.65	43.5
1911.64	36
1912.64	42
1913.63	40
1914.62	40
1915.62	41.5
1916.61	44.5
1917.6	39
1918.59	40
1919.59	41
1920.58	42
1921.57	45.5
1922.56	46
1923.55	39
1924.55	39.5
1925.54	44
1926.53	41
1927.52	41.5
1928.51	41
1929.5	41.5
1930.49	40
1931.48	42.5
1932.47	42.5
1933.46	41.5
1934.45	44
1935.44	42
1936.43	43.5
1937.42	44.5
1938.41	41.5
1939.4	40.5
1940.39	46
1941.38	43
1942.37	39.5
1943.36	42
1944.34	42
1945.33	42.5
1946.32	42
1947.31	44.5
1948.3	43.5
1949.28	42.5
1950.27	42
1951.26	49
1952.25	45.5
1953.23	44
1954.22	43
1955.21	45
1956.2	40
1957.18	37
1958.17	44.5
1959.15	46
1960.14	40.5
1961.13	44
1962.11	43
1963.1	44.5
1964.08	40
1965.07	44
1966.05	40
1967.04	42.5
1968.02	43.5
1969.01	46
1969.99	41.5
1970.98	45
1971.96	44.5
1972.94	44.5
1973.93	40
1974.91	42.5
1975.9	44.5
1976.88	39
1977.86	43
1978.85	38
1979.83	41
1980.81	41.5
1981.8	44.5
1982.78	36.5
1983.76	44.5
1984.74	44.5
1985.72	43.5
1986.71	43
1987.69	38
1988.67	43
1989.65	39.5
1990.63	39.5
1991.61	39.5
1992.6	38
1993.58	40.5
1994.56	43.5
1995.54	42
1996.52	47
1997.5	40.5
1998.48	39
1999.46	37
2000.44	40.5
2001.42	35
2002.4	42.5
2003.38	43
2004.36	37.5
2005.34	38
2006.32	41.5
2007.29	40
2008.27	41
2009.25	41
2010.23	38
2011.21	34.5
2012.19	39.5
2013.16	40
2014.14	43
2015.12	40
2016.1	38
2017.07	42
2018.05	40
2019.03	42
2020	40.5
2020.98	41
2021.96	41
2022.93	37.5
2023.91	42
2024.89	42
2025.86	42
2026.84	35.5
2027.81	44
2028.79	44
2029.77	41.5
2030.74	44
2031.72	45
2032.69	40.5
2033.67	41
2034.64	39.5
2035.61	39
2036.59	42
2037.56	42
2038.54	38.5
2039.51	41
2040.48	41.5
2041.46	40
2042.43	39.5
2043.41	38
2044.38	39
2045.35	36.5
2046.32	40.5
2047.3	38
2048.27	40
2049.24	41.5
2050.21	41.5
2051.19	43.5
2052.16	41.5
2053.13	43
2054.1	40
2055.07	41
2056.04	42.5
2057.02	42
2057.99	36
2058.96	38
2059.93	41.5
2060.9	34.5
2061.87	42
2062.84	40
2063.81	43
2064.78	41
2065.75	37
2066.72	41
2067.69	35
2068.66	41
2069.63	44
2070.6	40
2071.57	45
2072.53	39.5
2073.5	40.5
2074.47	38.5
2075.44	39.5
2076.41	41
2077.38	42.5
2078.34	42.5
2079.31	43
2080.28	34
2081.25	37.5
2082.21	37.5
2083.18	38.5
2084.15	36
2085.12	35.5
2086.08	47
2087.05	41
2088.02	39
2088.98	38.5
2089.95	44
2090.91	40.5
2091.88	40
2092.85	38.5
2093.81	39.5
2094.78	41.5
2095.74	41.5
2096.71	40
2097.67	38
2098.64	39
2099.6	39
2100.57	39.5
2101.53	37
2102.5	43.5
2103.46	35
2104.42	39
2105.39	41
2106.35	39
2107.31	40.5
2108.28	42.5
2109.24	40
2110.2	40.5
2111.17	40.5
2112.13	40
2113.09	39.5
2114.06	42
2115.02	38
2115.98	36.5
2116.94	39.5
2117.9	42.5
2118.86	42.5
2119.83	39
2120.79	42.5
2121.75	37.5
2122.71	41
2123.67	40.5
2124.63	44
2125.59	41
2126.55	39
2127.51	42
2128.48	40
2129.43	39
2130.4	41.5
2131.35	38.5
2132.31	42
2133.27	40
2134.23	40.5
2135.19	39.5
2136.15	39
2137.11	40
2138.07	37.5
2139.03	41
2139.99	43
2140.95	38.5
2141.9	40
2142.86	40.9868
2143.82	39.4277
2144.78	39.5278
2145.74	41.4342
2146.69	38.4402
2147.65	38.0994
2148.61	37.9827
2149.56	34.9031
2150.52	39.6503
2151.48	36.9539
2152.44	40.1568
2153.39	35.8769
2154.35	38.5
2155.3	40.9977
2156.26	36.784
2157.22	38.3427
2158.17	41.3056
2159.13	36.9387
2160.08	37.3075
2161.04	39.5784
2161.99	39.275
2162.95	38.7694
2163.9	35.7778
2164.86	40.2787
2165.81	35.6597
2166.77	39.3323
2167.72	39.9679
2168.68	38.5554
2169.63	37.03
2170.58	41.0195
2171.54	39.8519
2172.49	39.1754
2173.44	38.4073
2174.4	38.1249
2175.35	36.445
2176.3	38.7355
2177.26	38.6141
2178.21	41.1335
2179.16	35.8735
2180.11	39.5706
2181.07	38.939
2182.02	39.2098
2182.97	38.0497
2183.92	37.4771
2184.88	38.5599
2185.83	37.2289
2186.78	37.7423
2187.73	37
2188.68	36.3856
2189.63	37.2473
2190.58	40.7109
2191.53	36.3624
2192.48	37.5064
2193.43	39.148
2194.38	34.5917
2195.33	38.9933
2196.28	37.5763
2197.23	37.3795
2198.18	37.7228
2199.13	34.7981
2200.08	38.6716
2201.03	36.7337
2201.98	39.0807
2202.93	36.6212
2203.88	35.148
2204.83	38.8587
2205.78	36.7391
2206.72	33.3146
2207.67	37.0459
2208.62	31.675
2209.57	34.9706
2210.52	37.1348
2211.46	38.9558
2212.41	39.0459
2213.36	38.1226
2214.31	37.2163
2215.25	36.5998
2216.2	36.4665
2217.15	40.1787
2218.09	35.1555
2219.04	35.3725
2219.99	36.6006
2220.93	39.2161
2221.88	39.5027
2222.83	36.8223
2223.77	41.2242
2224.72	38.3642
2225.66	35.1599
2226.61	35.6413
2227.55	38.2769
2228.5	35.1118
2229.44	36.7763
2230.39	37.0922
2231.33	37.071
2232.28	38.2655
2233.22	36.3827
2234.17	37.6871
2235.11	36.1519
2236.05	35.9492
2237	36.5716
2237.94	35.6792
2238.88	36.7052
2239.83	36.2291
2240.04	36
2240.98	37
2241.93	40.5
2242.88	41
2243.83	32
2244.78	32
2245.72	36.5
2246.67	37
2247.62	38
2248.56	34
2249.51	42
2250.46	37.5
2251.4	35.5
2252.35	41
2253.3	38
2254.24	40
2255.19	41
2256.14	40
2257.08	38
2258.03	37
2258.97	35.5
2259.92	36.5
2260.86	42
2261.81	37.5
2262.75	36
2263.7	39
2264.64	42
2265.59	40
2266.53	36
2267.48	39
2268.42	40
2269.36	35.5
2270.31	37
2271.25	40
2272.19	42
2273.14	43.5
2274.08	34.5
2275.02	37.5
2275.97	37.5
2276.91	37.5
2277.85	33.5
2278.8	39.5
2279.74	34.5
2280.68	34.5
2281.62	41
2282.56	41
2283.51	38
2284.45	37
2285.39	39
2286.33	40
2287.27	34.5
2288.21	35
2289.15	40.5
2290.09	36
2291.04	32.5
2291.98	41
2292.92	37.5
2293.86	37
2294.8	41.5
2295.74	36.5
2296.68	37.5
2297.62	34.5
2298.56	36
2299.5	39
2300.44	37
2301.37	32.5
2302.31	36.5
2303.25	39.5
2304.19	38
2305.13	40.5
2306.07	38.5
2307.01	38
2307.94	35.5
2308.88	36.5
2309.82	37.5
2310.76	41
2311.7	36.5
2312.63	34
2313.57	33.5
2314.51	35
2315.44	41.5
2316.38	35
2317.32	36
2318.26	37.5
2319.19	35.5
2320.13	38.5
2321.06	36.5
2322	35.5
2322.94	38.5
2323.87	36
2324.81	37
2325.74	40.5
2326.68	37.5
2327.61	36.5
2328.55	35.5
2329.48	35.5
2330.42	33.5
2331.35	37.5
2332.29	32.5
2333.22	35
2334.16	40
2335.09	34.5
2336.02	39.5
2336.96	34
2337.89	41.5
2338.83	39
2339.76	37
2340.69	37
2341.63	37
2342.56	37
2343.49	38
2344.42	38.5
2345.36	40
2346.29	38.5
2347.22	38
2348.15	40.5
2349.09	38.5
2350.02	37.5
2350.95	40
2351.88	35
2352.81	35.5
2353.74	35
2354.68	40
2355.61	37.5
2356.54	36.5
2357.47	38
2358.4	39.5
2359.33	35
2360.26	39
2361.19	38.5
2362.12	34.5
2363.05	37.5
2363.98	38.5
2364.91	34
2365.84	40.5
2366.77	41
2367.7	34
2368.63	36
2369.56	36
2370.49	38
2371.41	35.5
2372.34	34
2373.27	35.5
2374.2	39.5
2375.13	38.5
2376.06	32
2376.98	32.5
2377.91	35.5
2378.84	35
2379.77	36.5
2380.69	38.5
2381.62	38.5
2382.55	35
2383.47	35
2384.4	33.5
2385.33	41.5
2386.25	33.5
2387.18	40
2388.11	37.5
2389.03	39
2389.96	34
2390.89	37.5
2391.81	40
2392.74	41
2393.66	38.5
2394.59	36
2395.51	41
2396.44	39.5
2397.36	41
2398.29	34
2399.21	39.5
2400.14	35
2401.06	40.5
2401.99	37
2402.91	37.5
2403.83	40
2404.76	38
2405.68	38.5
2406.6	39
2407.53	42
2408.45	36.5
2409.37	37
2410.3	37.5
2411.22	35
2412.14	40.5
2413.06	34
2413.99	32.5
2414.91	35
2415.83	36.5
2416.75	39
2417.68	41
2418.6	35.5
2419.52	33.5
2420.44	38.5
2421.36	37
2422.28	37
2423.2	38.5
2424.12	39
2425.05	35.5
2425.97	32.5
2426.89	32
2427.81	32.5
2428.73	37.5
2429.65	36
2430.57	39.5
2431.49	37.5
2432.41	36.5
2433.33	35.5
2434.25	36.5
2435.17	34
2436.08	42
2437	34.5
2437.92	37
2438.84	40
2439.76	34
2440.68	34.5
2441.6	37.5
2442.51	35.5
2443.43	35.5
2444.35	37
2445.27	37.5
2446.19	35.5
2447.1	32
2448.02	34
2448.94	35
2449.85	37.5
2450.77	36
2451.69	36.5
2452.61	35
2453.52	36
2454.44	37
2455.35	40
2456.27	35
2457.19	38
2458.1	40
2459.02	36
2459.94	33
2460.85	33.5
2461.77	36
2462.68	37
2463.6	38
2464.51	35.5
2465.43	38
2466.34	35
2467.25	38
2468.17	41.5
2469.08	40.5
2470	41.5
2470.91	37
2471.83	38
2472.74	33
2473.65	38
2474.57	37.5
2475.48	36
2476.39	35.5
2477.31	42.5
2478.22	36
2479.13	40
2480.04	34.5
2480.96	36
2481.87	38.5
2482.78	36.5
2483.69	40
2484.6	38.5
2485.52	37
2486.43	37.5
2487.34	37
2488.25	43.5
2489.16	35
2490.07	39
2490.99	39.5
2491.9	36.5
2492.81	39
2493.72	41.5
2494.63	35
2495.54	38
2496.45	39.5
2497.36	42
2498.27	39.5
2499.18	43.5
2500.09	38
2501	43
2501.91	43
2502.82	38
2503.73	41
2504.63	38
2505.54	41
2506.45	39.5
2507.36	40.5
2508.27	37.5
2509.18	34
2510.09	39
2510.99	43.5
2511.9	36
2512.81	40
2513.72	36.5
2514.62	35
2515.53	31
2516.44	37
2517.35	29
2518.25	38.5
2519.16	39
2520.07	38
2520.97	40.5
2521.88	38.5
2522.79	35.5
2523.69	35.5
2524.6	36.5
2525.51	37
2526.41	35.5
2527.32	37
2528.22	39.5
2529.13	35
2530.03	38
2530.94	40
2531.84	37
2532.75	35
2533.65	39
2534.56	36.5
2535.46	35
2536.37	35.5
2537.27	36.5
2538.17	40.5
2539.08	40.5
2539.98	41.5
2540.89	36
2541.79	36
2542.69	35
2543.6	34
2544.5	37.5
2545.4	37.5
2546.31	38
2547.21	36.5
2548.11	40
2549.01	31
2549.92	36.5
2550.82	35.5
2551.72	37
2552.62	36
2553.52	37.5
2554.42	39
2555.33	35.5
2556.23	35
2557.13	37
2558.03	35
2558.93	38
2559.83	38
2560.73	40
2561.63	31
2562.53	38.5
2563.43	35
2564.33	36
2565.24	36
2566.13	36.5
2567.04	39
2567.93	37.5
2568.83	38
2569.73	37.5
2570.63	34
2571.53	41
2572.43	37
2573.33	37.5
2574.23	35
2575.13	34
2576.03	39.5
2576.92	35
2577.82	39
2578.72	33.5
2579.62	33
2580.52	39.5
2581.41	38
2582.31	38
2583.21	38.5
2584.11	33.5
2585	39
2585.9	39
2586.8	36.5
2587.69	36.5
2588.59	35.5
2589.49	33.5
2590.38	38.5
2591.28	34
2592.18	37
2593.07	36
2593.97	37
2594.86	33.5
2595.76	36.5
2596.66	33.5
2597.55	34
2598.45	28.5
2599.34	36.5
2600.24	38.5
2601.13	37.5
2602.03	41.5
2602.92	36
2603.81	34.5
2604.71	34.5
2605.6	37
2606.5	35
2607.39	36.5
2608.28	35
2609.18	33
2610.07	38
2610.97	40
2611.86	38
2612.75	37
2613.64	36
2614.54	38
2615.43	37.5
2616.32	36
2617.22	41
2618.11	34
2619	35
2619.89	35
2620.78	37
2621.68	35.5
2622.57	36
2623.46	34
2624.35	33.5
2625.24	34.5
2626.13	36
2627.02	36
2627.91	38
2628.81	35
2629.7	37
2630.59	34
2631.48	39
2632.37	36
2633.26	38.5
2634.15	33.5
2635.04	33
2635.93	36
2636.82	37.5
2637.71	36.5
2638.59	35.5
2639.48	34.5
2640.37	37
2641.26	35.5
2642.15	34.5
2643.04	35.5
2643.93	40
2644.82	38
2645.71	32.5
2646.59	34
2647.48	35
2648.37	39.5
2649.26	33
2650.15	36
2651.03	37.5
2651.92	38.5
2652.81	38
2653.69	32
2654.58	31.5
2655.47	31
2656.35	36.5
2657.24	31.5
2658.13	35
2659.01	38
2659.9	41.5
2660.79	35
2661.67	36
2662.56	34
2663.44	35
2664.33	36.5
2665.22	39
2666.1	37.5
2666.99	34
2667.87	31
2668.76	38
2669.64	33
2670.52	35
2671.41	33
2672.29	33.5
2673.18	31.5
2674.06	37
2674.95	36.5
2675.83	31.5
2676.71	36
2677.6	36
2678.48	38.5
2679.36	35.5
2680.25	40.5
2681.13	39.5
2682.01	28
2682.9	38.5
2683.78	31
2684.66	34
2685.55	35.5
2686.43	36.5
2687.31	35
2688.19	38.5
2689.07	37.5
2689.96	36
2690.84	31
2691.72	37
2692.6	42
2693.48	36.5
2694.36	37.5
2695.24	33
2696.12	33.5
2697	38.5
2697.89	38.5
2698.77	33.5
2699.65	40
2700.53	35
2701.41	37.5
2702.29	35
2703.17	37.5
2704.05	36
2704.93	35
2705.81	35
2706.69	33.5
2707.57	33.5
2708.44	30.5
2709.32	34
2710.2	36.5
2711.08	36.5
2711.96	38
2712.84	34.5
2713.72	33.5
2714.59	35
2715.47	36
2716.35	37.5
2717.23	35.5
2718.11	40
2718.98	40
2719.86	34
2720.74	35
2721.62	35
2722.49	31
2723.37	32
2724.25	35
2725.12	35.5
2726	36
2726.88	32.5
2727.75	40
2728.63	35
2729.51	36.5
2730.38	34.5
2731.26	33
2732.13	38.5
2733.01	35
2733.88	40
2734.76	31
2735.63	38
2736.51	29
2737.38	36.5
2738.26	35
2739.13	37.5
2740.01	32.5
2740.88	37
2741.76	40
2742.63	36.5
2743.5	38.5
2744.38	37.5
2745.25	40.5
2746.13	38
2747	38.5
2747.87	36.5
2748.75	36
2749.62	40.5
2750.49	39.5
2751.36	36.5
2752.24	35
2753.11	38
2753.98	43
2754.86	36
2755.73	37
2756.6	41.5
2757.47	39
2758.34	37.5
2759.22	38
2760.09	38
2760.96	37
2761.83	38
2762.7	38.5
2763.57	40.5
2764.44	40
2765.31	37.5
2766.18	38.5
2767.06	37.5
2767.93	39
2768.8	37.5
2769.67	39.5
2770.54	39
2771.41	34.5
2772.28	42.5
2773.15	40
2774.02	38.5
2774.89	36.5
2775.75	42
2776.62	41.5
2777.49	35
2778.36	42.5
2779.23	43
2780.1	40
2780.97	43.5
2781.84	45.5
2782.71	42
2783.57	45.5
2784.44	45
2785.31	47.5
2786.18	46.5
2787.04	49.5
2787.91	48.5
2788.78	52
2789.65	45
2790.51	53
2791.38	52
2792.25	51.5
2793.12	51
2793.98	51.5
2794.85	57
2795.72	54.5
2796.58	53
2797.45	59
2798.31	47
2799.18	56
2800.05	60
2800.91	58.5
2801.78	56
2802.64	54
2803.51	58.5
2804.37	58
2805.24	60.5
2806.1	53
2806.97	55
2807.83	53.5
2808.7	59
2809.56	55
2810.43	53.5
2811.29	51.5
2812.15	59.5
2813.02	52.5
2813.88	53
2814.75	56.5
2815.61	56.5
2816.47	53
2817.34	56
2818.2	52
2819.06	55.5
2819.92	57.5
2820.79	60
2821.65	55
2822.51	52.5
2823.37	52
2824.24	48.5
2825.1	54.5
2825.96	58
2826.82	54
2827.69	53
2828.55	51
2829.41	53
2830.27	49.5
2831.13	55.5
2831.99	52
2832.85	56
2833.71	54
2834.58	59
2835.44	54
2836.3	57
2837.16	54.5
2838.02	52
2838.88	53.5
2839.74	50
2840.6	56
2841.46	58.5
2842.32	58
2843.18	59
2844.04	54
2844.9	57.5
2845.75	53
2846.61	55
2847.47	54
2848.33	53.5
2849.19	53
2850.05	57
2850.91	59.5
2851.77	53
2852.62	60
2853.48	57
2854.34	56
2855.2	54.5
2856.06	61
2856.91	60
2857.77	54
2858.63	60.5
2859.48	62.5
2860.34	62.5
2861.2	60
2862.06	64
2862.91	61
2863.77	63
2864.63	68.5
2865.48	73.5
2866.34	76
2867.19	70
2868.05	73
2868.91	72
2869.76	74.5
2870.62	81
2871.47	87.5
2872.33	87.5
2873.18	90.5
2874.04	88
2874.89	85
2875.75	90.5
2876.6	92.5
2877.46	96
2878.31	103
2879.17	102.5
2880.02	109
2880.88	106.5
2881.73	125
2882.58	115
2883.44	130
2884.29	122.5
2885.14	136
2886	144.5
2886.85	152
2887.7	160.5
2888.56	169.5
2889.41	180
2890.26	180
2891.12	197.5
2891.97	209
2892.82	220
2893.67	228.5
2894.52	242.5
2895.38	250
2896.23	283
2897.08	297
2897.93	319.5
2898.78	348.5
2899.64	378
2900.49	404
2901.34	424
2902.19	449.5
2903.04	471
2903.89	501
2904.74	506
2905.59	516
2906.44	519.5
2907.29	524
2908.14	515
2908.99	489
2909.84	466.5
2910.69	444
2911.54	423
2912.39	372.5
2913.24	345.5
2914.09	335.5
2914.94	306
2915.79	288
2916.64	251.5
2917.49	247.5
2918.34	219
2919.18	202
2920.03	184.5
2920.88	171.5
2921.73	159
2922.58	150
2923.42	140.5
2924.27	133
2925.12	127
2925.97	121
2926.82	119
2927.66	117.5
2928.51	105.5
2929.36	101
2930.2	101.5
2931.05	94.5
2931.9	92.5
2932.74	89.5
2933.59	89.5
2934.44	91
2935.28	86
2936.13	85.5
2936.98	86
2937.82	80
2938.67	81.5
2939.51	81.5
2940.36	86
2941.2	84.5
2942.05	88
2942.9	79
2943.74	88.5
2944.58	86.5
2945.43	85.5
2946.27	87
2947.12	86.5
2947.96	87
2948.81	92.5
2949.65	96
2950.5	98
2951.34	95
2952.18	106
2953.03	105
2953.87	112.5
2954.71	122
2955.56	137
2956.4	139.5
2957.24	157
2958.09	159.5
2958.93	172.5
2959.77	181
2960.62	192
2961.46	205.5
2962.3	205
2963.14	232.5
2963.98	239.5
2964.83	237
2965.67	232.5
2966.51	233
2967.35	228
2968.19	231
2969.04	221.5
2969.88	210.5
2970.72	205
2971.56	182.971
2972.4	185.761
2973.24	175.05
2974.08	160.862
2974.92	153.392
2975.76	143.78
2976.6	135.4
2977.44	126.878
2978.28	125.493
2979.12	108.027
2979.96	112.63
2980.8	104.813
2981.64	103.985
2982.48	93.3484
2983.32	93.6411
2984.16	88.7365
2985	83.9228
2985.84	83.2162
2986.68	73.3733
2987.52	73.6214
2988.35	71.6799
2989.19	67.9617
2990.03	65.5786
2990.87	62.8718
2991.71	65.8107
2992.55	63.5355
2993.38	61.9611
2994.22	56.0262
2995.06	56.5468
2995.9	57.3108
2996.73	53.4101
2997.57	54.0921
2998.41	51.2239
2999.25	52.5608
3000.08	54.4802
3000.92	46.9289
3001.76	47.3551
3002.59	46.2307
3003.43	49.896
3004.27	49.1327
3005.1	48.7126
3005.94	47.2847
3006.78	48.0888
3007.61	44.8064
3008.45	41.3343
3009.28	45.4498
3010.12	44.5174
3010.95	46.8083
3011.79	45.5807
3012.62	44.9462
3013.46	43.7593
3014.29	42
3015.13	42.7505
3015.96	41.1959
3016.8	40.2354
3017.63	41.33
3018.47	40.7699
3019.3	40.2941
3020.14	41.5125
3020.97	40.9193
3021.8	40.5368
3022.64	41.2962
3023.47	40.2122
3024.3	40.3266
3025.14	38.8146
3025.97	39.8975
3026.8	42.7119
3027.64	40.4539
3028.47	41.1758
3029.3	41.8405
3030.14	37.1236
3030.97	37.7557
3031.8	39.2129
3032.63	39.9526
3033.46	39.3412
3034.3	37.8886
3035.13	37.2555
3035.96	35.845
3036.79	38.014
3037.62	37.2298
3038.46	35.3184
3039.29	34.0897
3040.12	34.7961
3040.95	34.3786
3041.78	34.6243
3042.61	37.2726
3043.44	37.9901
3044.27	35.699
3045.1	37.0381
3045.93	38.2429
3046.76	39.2536
3047.59	37.7144
3048.42	37.0692
3049.25	38.2457
3050.08	37.3918
3050.91	37.1849
3051.74	38.2279
3052.57	39.9681
3053.4	37.9772
3054.23	36.2792
3055.06	34.965
3055.89	35.5153
3056.72	34.547
3057.32	36
3058.15	34.5
3058.98	37.5
3059.82	34.5
3060.65	36
3061.48	34
3062.31	35
3063.15	38
3063.98	31
3064.81	36.5
3065.64	41.5
3066.48	38.5
3067.31	38.5
3068.14	34.5
3068.97	33.5
3069.8	36.5
3070.63	36.5
3071.47	32.5
3072.3	36.5
3073.13	37.5
3073.96	32
3074.79	36
3075.62	40.5
3076.45	36
3077.28	37
3078.11	36
3078.94	38
3079.77	36.5
3080.6	34.5
3081.43	36.5
3082.26	41.5
3083.09	40.5
3083.92	38.5
3084.75	41.5
3085.58	40
3086.41	39
3087.24	37.5
3088.07	39.5
3088.9	35
3089.73	41
3090.55	35.5
3091.38	35
3092.21	37
3093.04	36
3093.87	37
3094.7	37
3095.52	37
3096.35	37.5
3097.18	35
3098.01	42
3098.84	36
3099.66	36.5
3100.49	40
3101.32	37
3102.14	38.5
3102.97	39
3103.8	39.5
3104.62	36.5
3105.45	38.5
3106.28	34
3107.1	32
3107.93	34.5
3108.76	39
3109.58	39
3110.41	35.5
3111.23	32.5
3112.06	33
3112.89	36
3113.71	37
3114.54	39.5
3115.36	37
3116.19	35
3117.01	37
3117.84	36
3118.66	34.5
3119.49	38
3120.31	38.5
3121.13	41
3121.96	35.5
3122.78	30
3123.61	38
3124.43	33
3125.25	37.5
3126.08	35
3126.9	37.5
3127.73	35
3128.55	40.5
3129.37	35
3130.19	36
3131.02	34.5
3131.84	41.5
3132.66	34
3133.49	36
3134.31	38
3135.13	36.5
3135.95	34.5
3136.78	31
3137.6	35.5
3138.42	36
3139.24	37
3140.06	36
3140.88	32
3141.71	37
3142.53	34.5
3143.35	34
3144.17	37
3144.99	33.5
3145.81	37.5
3146.63	36.5
3147.45	34
3148.27	37.5
3149.09	39
3149.91	35
3150.73	32.5
3151.56	36.5
3152.37	32.5
3153.2	33.5
3154.01	35
3154.83	35
3155.65	33
3156.47	34
3157.29	34
3158.11	37.5
3158.93	32.5
3159.75	34
3160.57	33.5
3161.39	30.5
3162.21	32
3163.02	30.5
3163.84	35.5
3164.66	31
3165.48	34
3166.3	30.5
3167.11	31.5
3167.93	35.5
3168.75	33.5
3169.57	36.5
3170.39	34.5
3171.2	34
3172.02	32
3172.84	34
3173.65	31.5
3174.47	32
3175.29	33
3176.1	37.5
3176.92	38.5
3177.74	29.5
3178.55	32.5
3179.37	33
3180.19	35
3181	35.5
3181.82	32.5
3182.63	27.5
3183.45	31.5
3184.27	33.5
3185.08	31
3185.9	29.5
3186.71	31.5
3187.53	35.5
3188.34	31
3189.16	30.5
3189.97	32.5
3190.79	32
3191.6	35
3192.41	30
3193.23	28.5
3194.04	33.5
3194.86	30
3195.67	31.5
3196.48	32.5
3197.3	32
3198.11	28.5
3198.93	34.5
3199.74	33.5
3200.55	28.5
3201.36	32
3202.18	32
3202.99	31.5
3203.8	35.5
3204.62	30
3205.43	29
3206.24	29
3207.05	29
3207.87	32
3208.68	31
3209.49	34
3210.3	30.5
3211.11	30.5
3211.93	31
3212.74	30.5
3213.55	30
3214.36	30
3215.17	34
3215.98	36.5
3216.79	33.5
3217.6	32.5
3218.41	32
3219.22	29
3220.03	33
3220.85	30.5
3221.66	31.5
3222.47	30.5
3223.28	31.5
3224.09	29.5
3224.9	30.5
3225.71	31
3226.52	30
3227.33	34
3228.13	35
3228.94	33
3229.75	33.5
3230.56	35.5
3231.37	32.5
3232.18	30
3232.99	33.5
3233.8	30
3234.61	31
3235.41	27
3236.22	32
3237.03	28.5
3237.84	29
3238.65	30.5
3239.45	30.5
3240.26	31
3241.07	32.5
3241.88	34.5
3242.68	29
3243.49	31.5
3244.3	37.5
3245.1	28.5
3245.91	26
3246.72	29.5
3247.53	28.5
3248.33	31.5
3249.14	32.5
3249.95	32
3250.75	29.5
3251.56	31
3252.36	28
3253.17	33
3253.97	30
3254.78	31
3255.59	28
3256.39	31
3257.2	31.5
3258	31.5
3258.81	28.5
3259.61	28.5
3260.42	28
3261.22	35
3262.03	29.5
3262.83	31
3263.64	30.5
3264.44	32
3265.24	32
3266.05	29.5
3266.85	29.5
3267.66	32
3268.46	31.5
3269.26	29.5
3270.07	30.5
3270.87	28.5
3271.67	30.5
3272.48	30.5
3273.28	30
3274.08	31.5
3274.89	30
3275.69	33.5
3276.49	32.5
3277.29	28
3278.1	32.5
3278.9	34
3279.7	34.5
3280.5	31
3281.3	32
3282.11	31.5
3282.91	33.5
3283.71	28
3284.51	28.5
3285.31	31.5
3286.11	29
3286.91	27
3287.72	30
3288.52	32.5
3289.32	28
3290.12	33
3290.92	31.5
3291.72	31
3292.52	31
3293.32	33
3294.12	32
3294.92	29.5
3295.72	31
3296.52	28
3297.32	33
3298.12	26.5
3298.92	26.5
3299.72	30
3300.52	28
3301.32	31
3302.12	29.5
3302.92	29
3303.71	28
3304.51	30.5
3305.31	30.5
3306.11	22
3306.91	29
3307.71	28.5
3308.5	33
3309.3	29.5
3310.1	28.5
3310.9	31.5
3311.7	31
3312.49	28.5
3313.29	31.5
3314.09	33.5
3314.89	32.5
3315.68	31.5
3316.48	29
3317.28	25
3318.07	28
3318.87	33
3319.67	33
3320.46	29.5
3321.26	31.5
3322.06	32.5
3322.85	29.5
3323.65	31
3324.44	32
3325.24	31
3326.04	30.5
3326.83	29
3327.63	31
3328.42	30.5
3329.22	30.5
3330.01	32.5
3330.81	30.5
3331.6	29.5
3332.4	29
3333.19	28
3333.99	29
3334.78	29.5
3335.58	31
3336.37	31.5
3337.17	33
3337.96	28.5
3338.75	28
3339.55	32
3340.34	31.5
3341.13	29.5
3341.93	28
3342.72	33
3343.51	29
3344.31	29
3345.1	28.5
3345.89	28.5
3346.69	32.5
3347.48	29
3348.27	28
3349.06	30
3349.86	29
3350.65	31.5
3351.44	27.5
3352.23	32.5
3353.03	31
3353.82	25
3354.61	26
3355.4	29
3356.19	30.5
3356.98	30.5
3357.78	24.5
3358.57	29.5
3359.36	29
3360.15	31.5
3360.94	31
3361.73	30
3362.52	26.5
3363.31	26.5
3364.1	28
3364.89	27.5
3365.68	29
3366.47	29.5
3367.26	27
3368.05	27
3368.84	32.5
3369.63	31
3370.42	30
3371.21	31
3372	29
3372.79	27.5
3373.58	29.5
3374.37	30
3375.16	32
3375.95	29
3376.73	28
3377.52	30
3378.31	31.5
3379.1	33
3379.89	29
3380.68	29.5
3381.46	28.5
3382.25	29
3383.04	26.5
3383.83	33
3384.62	31.5
3385.4	30
3386.19	26.5
3386.98	31.5
3387.76	33.5
3388.55	30.5
3389.34	33
3390.13	32.5
3390.91	27
3391.7	31
3392.49	29.5
3393.27	30
3394.06	26
3394.84	32.5
3395.63	32
3396.42	30
3397.2	32
3397.99	28
3398.77	31.5
3399.56	32
3400.34	32.5
3401.13	30.5
3401.92	32.5
3402.7	29
3403.49	27
3404.27	33.5
3405.06	32.5
3405.84	31
3406.62	28.5
3407.41	31
3408.19	29.5
3408.98	27
3409.76	30
3410.55	29.5
3411.33	33
3412.11	33.5
3412.9	34
3413.68	32
3414.46	29.5
3415.25	28.5
3416.03	28.5
3416.81	26.5
3417.6	30.5
3418.38	29
3419.16	27
3419.95	36
3420.73	27
3421.51	29
3422.29	30.5
3423.08	25
3423.86	28
3424.64	33
3425.42	30.5
3426.2	29.5
3426.98	28
3427.77	31.5
3428.55	29
3429.33	29
3430.11	32
3430.89	26
3431.67	29
3432.45	31.5
3433.24	28.5
3434.02	22.5
3434.8	28
3435.58	31.5
3436.36	30.5
3437.14	31
3437.92	31
3438.7	24
3439.48	27.5
3440.26	25
3441.04	29.5
3441.82	27
3442.6	29
3443.38	31
3444.16	28
3444.94	29.5
3445.71	30
3446.49	34
3447.27	30
3448.05	28.5
3448.83	26.5
3449.61	28
3450.39	27.5
3451.17	29.5
3451.94	30
3452.72	29
3453.5	30
3454.28	30
3455.06	31.5
3455.83	27.5
3456.61	29
3457.39	32
3458.17	31.5
3458.94	26
3459.72	29
3460.5	29.5
3461.28	31
3462.05	31
3462.83	29
3463.61	29
3464.38	30.5
3465.16	28
3465.93	29
3466.71	23
3467.49	30.5
3468.26	31
3469.04	27
3469.82	29
3470.59	27
3471.37	27
3472.14	29
3472.92	30
3473.69	26
3474.47	30
3475.24	31.5
3476.02	30
3476.79	27.5
3477.57	29
3478.34	29.5
3479.12	30.5
3479.89	32.5
3480.67	27.5
3481.44	33.5
3482.21	30.5
3482.99	30
3483.76	28
3484.54	28
3485.31	32
3486.08	31.5
3486.86	27
3487.63	33.5
3488.4	26.5
3489.18	31.5
3489.95	32
3490.72	33.5
3491.5	33
3492.27	27
3493.04	29
3493.81	28.5
3494.59	28
3495.36	31
3496.13	31.5
3496.9	27
3497.67	26.5
3498.45	30
3499.22	31.5
3499.99	27.5
