#Acq. time (s)=	5
#Accumulations=	5
#Range (cm-¹)=	100...3500
#Windows=	4
#Autofocus=	Off
#AutoExposure=	Off
#Spike filter=	Multiple accum.
#Delay time (s)=	0
#Binning=	1
#Readout mode=	Signal
#DeNoise=	Off
#ICS correction=	Off
#Dark correction=	Off
#Inst. Process=	Off
#Instrument=	LabRAM HR Evol
#Detector=	Syncerity OE
#Objective=	x100_VIS
#Grating=	600 (500nm)
#ND Filter=	25%
#Laser=	633nm_Edge
#Hole=	100.021
#Range=	Visible
#Project=	verificaciones
#Sample=	a4
#Site=	plain
#Title=	bolusa4plain
#Remark=	com
#Date=	16.01.2026 12:17
#Acquired=	16.01.2026 12:17:44
100.687	28.5
101.971	32
103.254	30.5
104.537	29
105.82	35
107.103	33.5
108.387	31.5
109.669	33
110.951	32.5
112.233	26.5
113.514	32
114.796	34.5
116.077	33.5
117.358	36
118.639	32
119.919	27.5
121.2	34
122.48	32
123.76	35.5
125.039	35.5
126.319	34.5
127.598	34.5
128.877	27.5
130.156	32.5
131.435	35
132.713	40
133.992	33
135.268	36
136.546	34.5
137.824	38.5
139.101	38.5
140.378	40.5
141.655	38
142.932	38.5
144.209	37.5
145.485	44
146.76	36
148.036	44
149.312	39.5
150.587	34
151.862	44.5
153.138	44
154.411	43
155.686	48
156.96	47
158.235	45
159.509	43
160.781	44.5
162.055	43.5
163.328	42.5
164.602	43
165.873	44.5
167.146	42
168.419	44
169.691	39
170.962	43
172.234	40
173.506	45.5
174.777	40
176.047	43
177.318	42
178.589	44
179.859	37
181.129	42
182.4	42.5
183.668	44.5
184.938	43
186.207	44
187.476	46
188.746	41
190.013	44
191.282	46
192.551	44.5
193.818	43
195.086	41
196.353	36
197.621	47
198.887	40.5
200.154	43
201.422	39
202.687	42
203.954	37
205.219	40
206.486	39
207.751	39.5
209.017	42
210.281	39.5
211.547	37
212.811	39
214.076	39
215.339	36.5
216.603	37
217.867	33.5
219.13	36.5
220.395	35
221.657	38.5
222.921	36.5
224.183	35.5
225.445	37
226.708	33
227.97	34
229.232	33.5
230.493	28.5
231.754	33
233.016	31
234.277	35
235.537	32
236.799	32
238.059	31
239.318	32
240.579	27.5
241.839	34
243.098	31
244.358	34.5
245.617	29.5
246.875	31
248.133	36
249.393	31
250.651	31.5
251.908	33
253.166	30.5
254.424	32
255.681	29
256.938	30
258.195	33
259.451	30.5
260.709	29
261.965	31
263.221	29
264.476	31
265.732	32.5
266.988	35
268.243	31.5
269.498	30
270.753	33.5
272.007	31
273.261	31
274.515	25
275.769	29.5
277.022	27.5
278.277	29.5
279.53	30
280.783	28.5
282.036	28
283.289	33
284.541	29.5
285.793	34
287.045	27.5
288.297	33.5
289.548	30
290.8	29
292.051	29.5
293.302	28
294.552	23
295.803	32.5
297.053	28.5
298.303	32.5
299.553	31
300.803	29
302.053	28.5
303.302	30.5
304.551	30
305.8	31
307.047	31.5
308.296	25.5
309.544	31
310.792	26.5
312.04	28.5
313.288	29
314.535	29
315.783	25
317.03	29.5
318.275	29.5
319.522	32
320.768	33.5
322.015	28
323.261	28.5
324.505	33
325.751	30.5
326.997	32.5
328.242	29
329.487	32
330.73	32
331.975	28
333.22	33
334.464	31.5
335.707	28
336.95	28.5
338.194	33
339.438	30.5
340.68	29
341.923	31
343.166	30
344.407	27.5
345.649	28
346.892	28
348.132	29
349.374	31
350.616	29
351.856	29
353.097	27.5
354.337	28.5
355.578	33.5
356.818	27
358.058	25
359.298	26.5
360.536	27
361.776	30
363.016	28.5
364.254	31.5
365.493	30
366.731	31
367.97	33
369.207	25.5
370.446	28
371.683	26.5
372.921	33
374.157	28
375.395	30
376.631	28
377.868	27.5
379.104	33
380.341	28.5
381.576	31
382.813	30
384.048	27
385.284	30
386.518	30.5
387.753	27.5
388.988	31.5
390.222	31.5
391.457	27
392.691	31
393.924	27.5
395.159	28
396.392	30
397.624	29.5
398.858	29
400.091	29
401.323	31
402.556	29
403.788	29
405.019	30.5
406.252	32
407.483	25
408.714	32.5
409.945	25.5
411.177	30
412.407	32.5
413.637	29
414.867	32
416.099	28
417.328	27.5
418.558	27
419.787	27
421.016	31
422.246	30.5
423.475	28.5
424.703	30
425.931	30.5
427.159	30
428.388	30.5
429.616	31
430.843	28
432.071	28.5
433.298	30
434.524	27
435.751	30
436.977	30
438.204	20.5
439.431	30
440.657	27.5
441.883	30.5
443.108	29
444.333	30
445.558	30
446.783	26
448.008	32
449.232	31
450.457	30
451.681	29
452.905	30.5
454.128	31
455.352	31.5
456.575	30
457.798	30
459.021	30
460.244	32
461.466	31
462.689	32
463.909	33.5
465.131	33.5
466.353	33.5
467.575	36
468.796	36
470.017	36.5
471.238	36
472.459	39
473.679	34.5
474.898	42
476.118	42
477.338	47
478.558	50.5
479.778	55
480.997	44
482.215	51.5
483.434	62
484.653	65
485.871	66.5
487.09	65.5
488.307	69.5
489.525	69
490.743	60
491.96	60.5
493.176	62
494.394	59
495.611	56
496.826	57
498.043	53
499.259	47.5
500.474	46
501.69	45
502.906	41.5
504.121	43.5
505.336	45
506.551	38.5
507.765	41.5
508.98	39.5
510.195	33
511.408	40
512.622	38
513.835	35
515.049	35
516.263	33.5
517.475	37.5
518.689	38
519.9	34.5
521.113	35
522.325	31.5
523.537	33.5
524.748	33
525.961	38
527.171	31
528.383	32.5
529.594	25
530.805	28.5
532.015	35
533.226	30
534.435	32.5
535.646	31
536.855	30
538.066	35
539.274	27.5
540.483	31.5
541.693	32
542.901	32
544.11	34
545.318	28.5
546.526	30
547.734	32
548.942	30
550.149	32
551.357	33
552.563	28.5
553.77	31
554.978	29
556.184	31.5
557.389	30
558.596	30.5
559.802	29
561.007	27
562.212	30
563.419	31.5
564.623	31
565.828	30
567.032	27.5
568.238	27.5
569.442	29
570.646	25
571.849	27
573.054	33
574.257	25
575.46	29
576.663	29.5
577.866	33
579.068	30
580.272	28
581.474	28
582.676	32.5
583.877	29
585.079	30
586.28	27.5
587.481	30.5
588.682	32
589.883	32
591.083	31
592.285	26
593.485	30
594.685	27
595.885	28
597.084	29.5
598.284	27.5
599.483	30.5
600.682	30.5
601.881	32
603.08	26.5
604.278	28.5
605.476	32
606.674	32.5
607.872	28.5
609.07	26.5
610.266	31
611.463	29.5
612.661	28
613.857	30
615.054	29
616.251	29.5
617.447	33.5
618.643	26.5
619.839	31
621.035	29
622.229	29
623.425	28
624.62	32
625.815	30
627.01	32
628.205	31
629.398	30
630.592	31.5
631.786	30.5
632.98	24
634.172	28.5
635.366	26
636.559	27.5
637.753	33
638.944	29
640.137	30.5
641.33	29.5
642.522	30.5
643.713	29
644.905	29
646.097	27
647.287	29.5
648.478	24.5
649.67	28.5
650.859	32.5
652.05	30.5
653.241	30
654.43	30
655.621	31.5
656.811	34
657.999	30.5
659.189	27.5
660.378	32
661.567	28
662.755	31.5
663.944	27
665.133	28.5
666.32	30
667.508	29
668.695	34
669.884	32.5
671.07	28
672.258	35
673.444	31
674.631	32
675.817	32
677.004	35.5
678.19	30.5
679.376	31.5
680.561	34.5
681.746	32
682.932	31.5
684.117	34
685.302	32.5
686.487	38
687.672	41
688.856	35.5
690.039	36
691.224	35
692.407	35
693.59	37
694.774	39
695.957	34.5
697.14	39
698.323	35
699.505	41
700.687	43
701.87	41
703.052	45.5
704.233	47
705.414	52
706.597	51.5
707.778	52
708.958	58
710.139	54.5
711.32	51.5
712.5	49
713.68	44.5
714.86	38.5
716.039	38
717.22	33
718.399	33.5
719.578	30
720.757	30
721.935	34
723.114	31
724.292	35
725.471	27.5
726.649	29
727.827	30
729.004	29
730.182	31.5
731.359	31
732.536	29.5
733.712	24
734.889	29
736.065	30
737.242	31.5
738.418	28.5
739.593	29.5
740.769	25
741.945	31
743.12	25.5
744.295	31.5
745.47	28.5
746.644	30.5
747.819	30.5
748.993	27.5
750.168	25
751.342	25.5
752.515	27.5
753.689	30
754.862	33.5
756.036	29
757.209	27.5
758.382	29.5
759.553	32
760.725	29
761.898	24.5
763.07	30
764.242	27
765.414	24.5
766.584	27.5
767.755	28
768.927	24.5
770.098	28.5
771.269	28
772.438	29
773.608	30.5
774.779	28
775.949	29.5
777.117	32
778.287	28.5
779.457	30.5
780.626	27.5
781.794	28
782.963	29.5
784.132	27
785.299	31.5
786.468	32
787.636	30
788.803	32
789.971	35
791.139	29
792.305	31
793.472	32
794.638	34
795.805	27
796.972	29.5
798.138	32.5
799.304	33
800.469	30
801.635	31
802.801	29.5
803.966	27.5
805.131	31
806.295	29.5
807.461	26
808.624	32.5
809.789	32.5
810.952	28
812.117	26
813.28	26
814.444	29.5
815.607	30.5
816.769	31
817.933	26.5
819.095	27
820.258	28.5
821.42	30
822.583	26.5
823.744	25
824.905	28.5
826.068	27.5
827.228	32
828.389	30
829.551	27.5
830.711	30.5
831.871	28.5
833.032	27.5
834.192	26.5
835.352	29.5
836.513	26.5
837.672	28
838.831	25
839.99	31
841.15	31
842.308	31
843.466	28
844.624	28
845.784	28.5
846.941	30
848.099	27
849.256	30.5
850.414	29.5
851.572	28
852.729	27
853.886	32.5
855.042	33
856.198	30.5
857.355	28.5
858.512	26
859.668	31
860.823	33
861.979	26
863.134	34.5
864.289	30
865.444	29.5
866.599	34.5
867.753	25
868.908	25
870.062	26
871.216	25
872.37	31.5
873.523	30
874.677	33
875.83	29
876.983	27.5
878.136	30.5
879.289	30
880.441	29.5
881.594	32
882.746	28
883.898	30
885.05	26.5
886.201	25.5
887.353	24.5
888.504	27
889.655	25.5
890.806	29.5
891.956	32
893.107	26.5
894.257	27
895.407	30.5
896.557	29.5
897.707	30
898.856	30.5
900.005	29
901.154	29
902.304	30.5
903.453	28
904.6	26.5
905.749	28.5
906.897	26.5
908.046	26
909.192	26
910.34	29.5
911.488	27
912.634	22
913.782	29
914.929	32.5
916.076	26
917.222	25.5
918.368	24
919.515	26
920.66	29.5
921.806	25
922.951	31
924.097	31.5
925.242	30
926.387	27.5
927.532	27
928.676	28
929.821	28
930.965	27
932.109	29.5
933.253	22
934.396	27
935.54	28
936.683	27.5
937.826	29
938.969	29.5
940.112	25
941.254	26
942.397	26.5
943.538	26.5
944.681	28
945.822	27
946.964	22.5
948.105	28
949.246	24
950.388	29
951.528	28
952.669	27.5
953.809	25.5
954.949	25.5
956.09	27.5
957.229	28.5
958.369	26
959.509	28.5
960.648	28.5
961.786	24
962.926	28.5
964.065	27
965.203	25.5
966.342	29
967.48	29
968.618	29
969.755	23.5
970.894	24.75
972.031	26
973.168	27.5
974.305	26.5
975.441	28
976.579	25
977.715	26.5
978.851	25
979.987	25.5
981.123	26
982.26	30.5
983.395	32
984.531	24
985.666	24
986.8	25
987.935	26
989.07	22
990.204	25.5
991.338	28
992.472	28
993.607	21
994.741	28.5
995.874	23
997.008	26.5
998.141	29
999.274	27
1000.41	29.5
1001.54	25.5
1002.67	28
1003.8	25
1004.94	26.5
1006.07	26.5
1007.2	26.5
1008.33	26.5
1009.46	25
1010.59	27
1011.72	24
1012.85	25
1013.99	26.5
1015.12	28
1016.25	22
1017.38	25.5
1018.51	24.5
1019.63	26.5
1020.76	26.5
1021.89	25.5
1023.02	24.5
1024.15	26
1025.28	27
1026.41	26.5
1027.54	25.5
1028.67	30
1029.79	23.5
1030.92	32
1032.05	28.5
1033.18	24.5
1034.3	29
1035.43	28
1036.56	27.5
1037.68	27
1038.81	24.5
1039.94	23
1041.06	27
1042.19	27
1043.31	25
1044.44	28
1045.57	28.5
1046.69	27
1047.82	27.5
1048.94	25.5
1050.07	31
1051.19	24
1052.31	27.5
1053.44	26
1054.56	27
1055.69	25.5
1056.81	24.5
1057.93	27
1059.06	23
1060.18	29.5
1061.3	28.5
1062.42	25
1063.55	22.5
1064.67	24
1065.79	29
1066.91	25.5
1068.03	28.5
1069.16	31
1070.28	26.5
1071.4	28.5
1072.52	30
1073.64	29.5
1074.76	24.5
1075.88	27
1077	28.5
1078.12	22
1079.24	26
1080.36	22
1081.48	29
1082.6	23.5
1083.72	24.5
1084.84	25.5
1085.96	28
1087.08	23
1088.2	28.5
1089.31	28
1090.43	28
1091.55	30.5
1092.67	27.5
1093.78	26
1094.9	26.5
1096.02	29
1097.14	29.5
1098.25	26.5
1099.37	28.5
1100.49	24
1101.6	24
1102.72	25
1103.83	28
1104.95	25.5
1106.07	28
1107.18	23.5
1108.3	26
1109.41	27.5
1110.52	25
1111.64	23.5
1112.75	26.5
1113.87	24.5
1114.98	26
1116.1	27
1117.21	25.5
1118.32	20.5
1119.44	27
1120.55	26.5
1121.66	24
1122.78	23.5
1123.89	28.5
1125	25
1126.11	27
1127.23	23
1128.34	27
1129.45	26
1130.56	30.5
1131.67	23
1132.78	25.5
1133.89	28
1135	27
1136.12	27.5
1137.23	27.5
1138.34	23
1139.45	24.5
1140.56	23
1141.67	24
1142.78	26.5
1143.89	25
1144.99	27
1146.1	27.5
1147.21	25.5
1148.32	27
1149.43	26
1150.54	24.5
1151.65	28
1152.75	25
1153.86	28
1154.97	27
1156.08	25.5
1157.18	29.5
1158.29	26.5
1159.4	33
1160.5	26.5
1161.61	24
1162.72	27.5
1163.82	28.5
1164.93	29
1166.03	28
1167.14	31.5
1168.24	24
1169.35	25
1170.45	25
1171.56	27
1172.66	27.5
1173.77	23.5
1174.87	29
1175.98	23
1177.08	24
1178.19	22
1179.29	26.5
1180.39	25.5
1181.5	26
1182.6	27.5
1183.7	23
1184.8	25
1185.91	25.5
1187.01	31
1188.11	24.5
1189.21	28.5
1190.32	26.5
1191.42	21
1192.52	24
1193.62	26
1194.72	24.9844
1195.82	27.8924
1196.92	26.0219
1198.02	29.8582
1199.12	24.459
1200.22	23.136
1201.32	26.3386
1202.42	26.9272
1203.52	27.3831
1204.62	23.7242
1205.72	23.9466
1206.82	24.2318
1207.92	26.0066
1209.02	27.8823
1210.12	25.9493
1211.22	23.911
1212.31	23.2299
1213.41	26.9795
1214.51	24.5966
1215.61	25.1784
1216.71	25.4449
1217.8	29.2637
1218.9	23.5722
1220	25.6527
1221.09	24.3676
1222.19	23.615
1223.29	20.8806
1224.38	26.0506
1225.48	26.1662
1226.58	26.08
1227.67	25.8797
1228.77	26.8764
1229.86	23.8315
1230.96	25.2945
1232.05	25.5753
1233.15	27.1034
1234.24	23.5093
1235.34	25.9897
1236.43	24.3474
1237.52	26.0398
1238.62	23.7694
1239.71	24.6992
1240.81	24.2956
1241.9	25.2888
1242.99	25.215
1244.09	24.0666
1245.18	25.984
1246.27	24.8256
1247.36	25.9213
1248.46	23.8056
1249.55	25.7227
1250.64	25.5
1251.73	26.2257
1252.82	25.7415
1253.92	23.8196
1255.01	25.2305
1256.1	27.7978
1257.19	24.5482
1258.28	27.2754
1259.37	27.1663
1260.46	28.5537
1261.55	26.8704
1262.64	26.1915
1263.73	27.3344
1264.82	25.5663
1265.91	25.5677
1267	25.6038
1268.09	23.8422
1269.18	27.5063
1270.27	25.4049
1271.36	25.2437
1272.45	24.5062
1273.53	24.8944
1274.62	23.2447
1275.71	23.7578
1276.8	26.2703
1277.89	26.4458
1278.97	26.5696
1280.06	26.2361
1281.15	25.7282
1282.23	27.2242
1283.32	24.2122
1284.41	23.074
1285.49	24.2776
1286.58	24.7061
1287.67	24.1805
1288.75	27.7969
1289.84	25.4586
1290.92	24.5986
1292.01	26.7575
1293.09	23.8584
1294.18	25.7792
1295.26	25.4831
1296.35	26.5552
1297.43	24.8556
1298.52	27.7278
1299.6	24.6799
1300.69	26.5855
1301.77	28.1306
1302.85	28.3641
1303.94	27.7363
1305.02	24.2276
1306.1	21.9658
1306.42	21.5
1307.51	23.5
1308.59	26.5
1309.68	25.5
1310.77	26.5
1311.86	25
1312.95	24
1314.03	26.5
1315.12	24
1316.21	23.5
1317.29	25.5
1318.38	22
1319.47	25.5
1320.55	25
1321.64	24
1322.72	25.5
1323.81	25
1324.89	25.5
1325.98	27.5
1327.07	22
1328.15	24.5
1329.24	24.5
1330.32	27.5
1331.4	24
1332.49	24
1333.57	28.5
1334.66	27
1335.74	27
1336.82	25
1337.91	26.5
1338.99	27.5
1340.07	24
1341.16	22
1342.24	28
1343.32	26
1344.4	25
1345.49	26
1346.57	28
1347.65	25
1348.73	28
1349.81	23.5
1350.9	25
1351.98	28
1353.06	29
1354.14	22.5
1355.22	28.5
1356.3	26.5
1357.38	24.5
1358.46	25
1359.54	26
1360.62	23.5
1361.7	27.5
1362.78	24
1363.86	24
1364.94	28.5
1366.02	26.5
1367.1	26
1368.17	26.5
1369.25	27
1370.33	24
1371.41	25.5
1372.49	26
1373.57	27
1374.64	24.5
1375.72	24.5
1376.8	27
1377.87	27
1378.95	26
1380.03	23.5
1381.1	25.5
1382.18	23.5
1383.26	23
1384.33	28.5
1385.41	30
1386.49	26
1387.56	26
1388.64	27.5
1389.71	26
1390.79	24
1391.86	26.5
1392.94	27
1394.01	31
1395.08	27
1396.16	29
1397.23	27
1398.31	30
1399.38	31
1400.45	29.5
1401.53	30
1402.6	32.5
1403.67	30
1404.75	32.5
1405.82	33.5
1406.89	36
1407.96	31
1409.04	33
1410.11	32
1411.18	28.5
1412.25	34
1413.32	32
1414.39	30
1415.47	30
1416.54	30.5
1417.61	31
1418.68	28.5
1419.75	29.5
1420.82	32
1421.89	29
1422.96	26
1424.03	28.5
1425.1	31.5
1426.17	27.5
1427.24	24
1428.31	30
1429.38	28
1430.44	29.5
1431.51	30
1432.58	30.5
1433.65	28.5
1434.72	27
1435.79	26
1436.85	26
1437.92	24.5
1438.99	22
1440.05	25.5
1441.12	26.5
1442.19	27.5
1443.26	24.5
1444.32	29
1445.39	24.5
1446.46	26.5
1447.52	25.5
1448.59	26
1449.65	25.5
1450.72	24
1451.78	23.5
1452.85	27
1453.91	22
1454.98	29
1456.04	23
1457.11	29.5
1458.17	24
1459.24	24.5
1460.3	27
1461.36	22.5
1462.43	29
1463.49	24
1464.56	23.5
1465.62	24.5
1466.68	27
1467.74	26.5
1468.81	26.5
1469.87	27
1470.93	28
1471.99	26
1473.06	26
1474.12	26
1475.18	29.5
1476.24	26
1477.3	26.5
1478.36	28.5
1479.42	23.5
1480.49	26
1481.55	27
1482.61	28.5
1483.67	27.5
1484.73	27
1485.79	28.5
1486.85	27.5
1487.91	27.5
1488.97	27
1490.03	28
1491.09	27
1492.14	26
1493.2	25
1494.26	24
1495.32	28
1496.38	29
1497.44	28
1498.49	25
1499.55	29.5
1500.61	28
1501.67	28.5
1502.72	28
1503.78	29
1504.84	24
1505.89	24
1506.95	25.5
1508.01	28.5
1509.07	23.5
1510.12	26
1511.18	26
1512.23	24.5
1513.29	31
1514.34	28
1515.4	26
1516.45	25.5
1517.51	26.5
1518.56	24
1519.62	24
1520.67	28.5
1521.73	23
1522.78	24
1523.84	22.5
1524.89	28.5
1525.94	25.5
1527	25
1528.05	26
1529.1	26.5
1530.16	28
1531.21	23.5
1532.26	23
1533.32	23
1534.37	24
1535.42	22.5
1536.47	29
1537.52	29
1538.57	24.5
1539.63	28.5
1540.68	26.5
1541.73	26
1542.78	25.5
1543.83	22.5
1544.88	27.5
1545.93	25
1546.98	29
1548.03	28.5
1549.08	26
1550.13	27.5
1551.18	25
1552.23	23
1553.28	25
1554.33	22.5
1555.38	27
1556.43	25
1557.48	28.5
1558.53	23
1559.57	30.5
1560.62	22.5
1561.67	28.5
1562.72	23
1563.77	29
1564.81	28.5
1565.86	25
1566.91	27
1567.96	24
1569	25
1570.05	28
1571.09	28.5
1572.14	27.5
1573.19	23.5
1574.23	27
1575.28	24.5
1576.33	25.5
1577.37	27
1578.42	28
1579.46	25
1580.51	24.5
1581.55	24
1582.6	23.5
1583.64	28
1584.69	25
1585.73	24
1586.77	23
1587.82	26
1588.86	25.5
1589.91	25
1590.95	26.5
1591.99	25
1593.04	26
1594.08	27.5
1595.12	23
1596.16	26.5
1597.21	22
1598.25	25
1599.29	24.5
1600.33	25.5
1601.37	25
1602.42	23.5
1603.46	28
1604.5	27.5
1605.54	26
1606.58	26.5
1607.62	28.5
1608.66	24.5
1609.7	24.5
1610.74	24
1611.78	27
1612.82	25.5
1613.86	23.5
1614.9	30
1615.94	28
1616.98	23.5
1618.02	30
1619.06	25
1620.1	26.5
1621.14	27
1622.18	25
1623.21	23.5
1624.25	27
1625.29	22
1626.33	28
1627.37	23
1628.4	25.5
1629.44	27
1630.48	30
1631.52	28.5
1632.55	25.5
1633.59	27
1634.63	24
1635.66	24
1636.7	24.5
1637.73	28
1638.77	29
1639.81	25.5
1640.84	27.5
1641.88	24
1642.91	22.5
1643.95	31
1644.98	25
1646.02	25.5
1647.05	22
1648.09	26
1649.12	27
1650.16	27
1651.19	25.5
1652.22	30.5
1653.26	24.5
1654.29	23.5
1655.32	27.5
1656.36	26
1657.39	24
1658.42	23.5
1659.46	23.5
1660.49	27
1661.52	23
1662.55	25.5
1663.59	23
1664.62	27
1665.65	29
1666.68	26.5
1667.71	25.5
1668.74	27
1669.77	28
1670.81	27
1671.84	28
1672.87	26
1673.9	23
1674.93	25.5
1675.96	25.5
1676.99	24
1678.02	24.5
1679.05	23
1680.08	27
1681.11	25.5
1682.13	25
1683.16	22.5
1684.19	22
1685.22	27.5
1686.25	29.5
1687.28	25
1688.31	24.5
1689.33	22
1690.36	29
1691.39	25.5
1692.42	28
1693.45	28.5
1694.47	25.5
1695.5	21.5
1696.53	27
1697.55	24
1698.58	28.5
1699.61	27.5
1700.63	25
1701.66	26
1702.68	29
1703.71	23
1704.74	19
1705.76	22.5
1706.79	24
1707.81	28
1708.84	25.5
1709.86	29
1710.89	27.5
1711.91	25.5
1712.94	26
1713.96	29.5
1714.98	26
1716.01	26
1717.03	24.5
1718.05	26
1719.08	23.5
1720.1	23.5
1721.12	28.5
1722.15	24.5
1723.17	26.5
1724.19	27
1725.22	28.5
1726.24	27.5
1727.26	30
1728.28	31.5
1729.3	24.5
1730.32	26
1731.35	25
1732.37	27.5
1733.39	27
1734.41	27
1735.43	26
1736.45	27
1737.47	21.5
1738.49	26
1739.51	22
1740.53	23
1741.55	27
1742.57	22.5
1743.59	27.5
1744.61	24
1745.63	26
1746.65	27
1747.67	28.5
1748.69	24
1749.71	23.5
1750.72	26
1751.74	24.5
1752.76	27
1753.78	20.5
1754.8	28.5
1755.81	23
1756.83	24
1757.85	27
1758.87	29
1759.88	24
1760.9	28.5
1761.92	24
1762.93	24
1763.95	26.5
1764.97	24
1765.98	28
1767	28
1768.01	23
1769.03	26
1770.05	21
1771.06	25
1772.08	27.5
1773.09	27
1774.11	25
1775.12	26.5
1776.13	25
1777.15	26
1778.16	25.5
1779.18	26
1780.19	25.5
1781.2	28
1782.22	23.5
1783.23	26
1784.24	27
1785.26	28.5
1786.27	28
1787.28	26
1788.3	27.5
1789.31	22.5
1790.32	26.5
1791.33	24.5
1792.35	23
1793.36	23
1794.37	24.5
1795.38	31
1796.39	27
1797.4	23.5
1798.41	25.5
1799.43	22
1800.44	25
1801.45	26
1802.46	29.5
1803.47	22
1804.48	25
1805.49	28
1806.5	26.5
1807.51	21
1808.52	23
1809.53	24
1810.53	28
1811.54	27
1812.55	26
1813.56	27.5
1814.57	27.5
1815.58	22
1816.59	19
1817.6	24
1818.6	28
1819.61	29
1820.62	24
1821.63	26
1822.63	29.5
1823.64	27
1824.65	29.5
1825.65	28
1826.66	28.5
1827.67	26
1828.67	25.5
1829.68	24
1830.69	24.5
1831.69	28
1832.7	23.5
1833.7	24.5
1834.71	25.5
1835.71	21.5
1836.72	24.5
1837.72	22
1838.73	24.5
1839.73	26
1840.74	27
1841.74	27.5
1842.75	25.5
1843.75	25
1844.75	28
1845.76	26
1846.76	25.5
1847.76	25.5
1848.77	24
1849.77	25.5
1850.77	27
1851.78	25.5
1852.78	26
1853.78	29
1854.78	31.5
1855.79	30.5
1856.79	20.5
1857.79	21.5
1858.79	26
1859.79	27
1860.8	26
1861.8	27
1862.8	29
1863.8	24
1864.8	29.5
1865.8	27
1866.8	25.5
1867.8	24
1868.8	21.5
1869.8	23.5
1870.8	27
1871.8	24
1872.8	27
1873.8	28.5
1874.8	23.5
1875.8	22
1876.8	25
1877.8	27.5
1878.79	27
1879.79	24
1880.79	24.5
1881.79	23
1882.79	27
1883.79	24
1884.78	25
1885.78	23
1886.78	26
1887.77	27
1888.77	26
1889.77	26.5
1890.77	23
1891.76	24.5
1892.76	24
1893.76	25
1894.75	29
1895.75	26
1896.74	26.5
1897.74	22.5
1898.73	28.5
1899.73	26
1900.72	21
1901.72	24
1902.72	26.5
1903.71	25
1904.7	28
1905.7	23.5
1906.69	27
1907.69	29.5
1908.68	27
1909.67	26
1910.67	23
1911.66	24.5
1912.66	27
1913.65	22.5
1914.64	29.5
1915.63	27.5
1916.63	27.5
1917.62	23
1918.61	23.5
1919.6	25
1920.6	26
1921.59	25
1922.58	24.5
1923.57	23.5
1924.56	26.5
1925.56	23
1926.55	25
1927.54	23
1928.53	25.5
1929.52	23
1930.51	21.5
1931.5	24.5
1932.49	26
1933.48	23.5
1934.47	26.5
1935.46	23
1936.45	24
1937.44	26.5
1938.43	26
1939.42	22
1940.41	22.5
1941.4	28.5
1942.39	29
1943.37	24.5
1944.36	24.5
1945.35	28
1946.34	27
1947.33	23.5
1948.32	25.25
1949.3	24
1950.29	24.5
1951.28	25
1952.27	27.5
1953.25	21
1954.24	22.5
1955.23	22
1956.21	24
1957.2	21.5
1958.19	24
1959.17	24
1960.16	28
1961.14	25.5
1962.13	26.5
1963.12	21
1964.1	30
1965.09	22.5
1966.07	23
1967.06	26.5
1968.04	20
1969.03	28
1970.01	27.5
1970.99	21.5
1971.98	26
1972.96	24.5
1973.95	29
1974.93	22
1975.92	28
1976.9	24
1977.88	25
1978.87	24
1979.85	21.5
1980.83	30
1981.81	24
1982.8	25
1983.78	26
1984.76	25
1985.74	26.5
1986.73	25.5
1987.71	28
1988.69	23
1989.67	24
1990.65	26
1991.63	25.5
1992.61	25.5
1993.59	25
1994.58	23.5
1995.56	25
1996.54	27.5
1997.52	24.5
1998.5	25
1999.48	24
2000.46	23.5
2001.44	24.5
2002.42	25
2003.4	22
2004.38	23.5
2005.35	24
2006.33	19
2007.31	29
2008.29	22.5
2009.27	25
2010.25	25
2011.23	25
2012.2	22.5
2013.18	21.5
2014.16	25.5
2015.14	26.5
2016.11	21.5
2017.09	24
2018.07	20.5
2019.05	26.5
2020.02	25.5
2021	25.5
2021.98	23
2022.95	28.5
2023.93	23
2024.91	23
2025.88	22
2026.86	24.5
2027.83	24.5
2028.81	21
2029.78	26
2030.76	22
2031.73	25
2032.71	23.5
2033.68	25.5
2034.66	27
2035.63	29.5
2036.61	23.5
2037.58	26
2038.56	22
2039.53	23.5
2040.5	23.5
2041.48	25
2042.45	23
2043.42	22
2044.4	26.5
2045.37	22.5
2046.34	27
2047.32	24
2048.29	22
2049.26	25.5
2050.23	23
2051.2	28
2052.18	23.5
2053.15	26
2054.12	26
2055.09	22.5
2056.06	22.5
2057.03	25
2058	25.5
2058.98	22.5
2059.95	23
2060.92	23
2061.89	20
2062.86	26
2063.83	27
2064.8	23.5
2065.77	21.5
2066.74	23
2067.71	18.5
2068.68	22
2069.65	25
2070.61	27
2071.58	24
2072.55	27.5
2073.52	25
2074.49	27.5
2075.46	23.5
2076.43	24
2077.4	23
2078.36	24
2079.33	22.5
2080.3	24.5
2081.27	24
2082.23	23.5
2083.2	20.5
2084.17	22
2085.13	20
2086.1	26
2087.07	22.5
2088.03	24.5
2089	25
2089.97	24
2090.93	25
2091.9	22
2092.86	23
2093.83	23
2094.8	23
2095.76	24
2096.73	25
2097.69	22.5
2098.66	27.5
2099.62	23
2100.58	23.5
2101.55	24
2102.51	21.5
2103.48	26
2104.44	23
2105.41	20
2106.37	22
2107.33	23
2108.3	23.5
2109.26	20
2110.22	29
2111.19	22
2112.15	26
2113.11	27
2114.07	23.5
2115.04	23.5
2116	24
2116.96	23.5
2117.92	26
2118.88	24
2119.85	28.5
2120.81	25.5
2121.77	23.5
2122.73	24
2123.69	26
2124.65	24.5
2125.61	21
2126.57	18.5
2127.53	26
2128.49	20
2129.45	25.5
2130.41	24
2131.37	22.5
2132.33	24.5
2133.29	22
2134.25	25
2135.21	25
2136.17	26.5
2137.13	23.5
2138.09	23.5
2139.05	24.5
2140.01	26.5
2140.96	23.5
2141.92	23.5
2142.88	22.4922
2143.84	20.9881
2144.8	27.4701
2145.75	26.0072
2146.71	23.5218
2147.67	24.8925
2148.63	23.7946
2149.58	25.3268
2150.54	23.4411
2151.5	22.3907
2152.45	22.146
2153.41	26.0041
2154.37	21.3509
2155.32	23.9205
2156.28	23.0732
2157.23	23.7248
2158.19	25.1312
2159.15	19.4017
2160.1	23.0168
2161.06	21.8959
2162.01	24.3299
2162.97	24.0498
2163.92	22.364
2164.88	21.6141
2165.83	21.0509
2166.78	21.1747
2167.74	26.716
2168.69	24.1761
2169.65	26.054
2170.6	24.5073
2171.56	24.2369
2172.51	21.2647
2173.46	23.0756
2174.42	22.3252
2175.37	22.0559
2176.32	23.7394
2177.28	22.4169
2178.23	23.1796
2179.18	23.0988
2180.13	20.4207
2181.08	25.1694
2182.04	22.0642
2182.99	22.4947
2183.94	24.7147
2184.89	21.628
2185.84	24.594
2186.8	24.4512
2187.75	23.9427
2188.7	23.2115
2189.65	23.621
2190.6	24.7208
2191.55	22.9899
2192.5	20.7815
2193.45	22.5317
2194.4	24.5532
2195.35	23.2694
2196.3	20.5389
2197.25	26.1614
2198.2	24.1699
2199.15	25.2642
2200.1	23.1648
2201.05	21.6063
2202	19.0615
2202.95	25.1678
2203.9	22.1398
2204.85	20.5623
2205.79	24.8166
2206.74	22.0838
2207.69	21.5685
2208.64	26.045
2209.59	23.2373
2210.53	22.3796
2211.48	22.8325
2212.43	22.5765
2213.38	20.3528
2214.32	24.8042
2215.27	22.7059
2216.22	22.7528
2217.17	24.2909
2218.11	22.244
2219.06	22.9592
2220.01	23.1791
2220.95	25.2105
2221.9	21.6799
2222.84	22.933
2223.79	23.3398
2224.73	22.8875
2225.68	23.0049
2226.63	23.3564
2227.57	23.5306
2228.52	24.6025
2229.46	21.2719
2230.41	22.5696
2231.35	23.1383
2232.3	23
2233.24	22.8544
2234.18	20.1639
2235.13	23.8396
2236.07	24.519
2237.02	23.0415
2237.96	23.224
2238.9	22.3388
2239.85	21.255
2240.08	21
2241.03	24
2241.97	25
2242.92	22
2243.87	21.5
2244.82	21
2245.76	21
2246.71	22.5
2247.66	22
2248.61	22.5
2249.55	22.5
2250.5	24
2251.45	21.5
2252.39	22.5
2253.34	21
2254.29	21.5
2255.23	21.5
2256.18	24
2257.12	28.5
2258.07	22
2259.01	23
2259.96	23.5
2260.9	24.5
2261.85	22
2262.79	22
2263.74	25
2264.68	23.5
2265.63	23
2266.57	22
2267.52	24
2268.46	28.5
2269.41	23.5
2270.35	23
2271.29	28.5
2272.24	25.5
2273.18	26.5
2274.12	23.5
2275.07	24.5
2276.01	20.5
2276.95	25
2277.89	22
2278.84	26
2279.78	17
2280.72	24
2281.66	27.5
2282.6	22.5
2283.55	22
2284.49	25
2285.43	24.5
2286.37	21
2287.31	22.5
2288.25	22
2289.2	23
2290.14	22.5
2291.08	21
2292.02	22
2292.96	20
2293.9	23
2294.84	25
2295.78	18.5
2296.72	25.5
2297.66	26
2298.6	21.5
2299.54	26
2300.48	26
2301.42	26
2302.35	22.5
2303.29	22.5
2304.23	21
2305.17	24.5
2306.11	22
2307.05	26
2307.99	24
2308.92	25
2309.86	22
2310.8	21
2311.74	19.5
2312.67	24
2313.61	22.5
2314.55	24
2315.49	22
2316.42	22.5
2317.36	23
2318.3	26.5
2319.23	27
2320.17	23.5
2321.1	26.5
2322.04	24
2322.98	28.5
2323.91	22.5
2324.85	23
2325.78	25
2326.72	22.5
2327.66	24.5
2328.59	22
2329.52	25
2330.46	19.5
2331.39	26.5
2332.33	26.5
2333.26	27.5
2334.2	26
2335.13	23
2336.07	22.5
2337	25.5
2337.93	26.5
2338.87	21
2339.8	25.5
2340.73	23
2341.67	26
2342.6	25.5
2343.53	24.5
2344.46	22.5
2345.4	24
2346.33	23.5
2347.26	24
2348.19	23.5
2349.13	23.5
2350.06	24.5
2350.99	27
2351.92	24.5
2352.85	26
2353.79	22.5
2354.72	26.5
2355.65	24
2356.58	24
2357.51	27
2358.44	26.5
2359.37	28.5
2360.3	21
2361.23	21
2362.16	28.5
2363.09	23.5
2364.02	22
2364.95	25.5
2365.88	24
2366.81	23
2367.74	23.5
2368.67	25
2369.6	23
2370.53	26
2371.45	22.5
2372.38	22
2373.31	24
2374.24	24.5
2375.17	23.5
2376.1	28.5
2377.02	28.5
2377.95	23
2378.88	27.5
2379.81	20
2380.73	22.5
2381.66	25
2382.59	26.5
2383.52	24.5
2384.44	23
2385.37	20
2386.3	24
2387.22	23
2388.15	22
2389.07	21.5
2390	28
2390.93	21.5
2391.85	26.5
2392.78	24
2393.7	25.5
2394.63	24.5
2395.55	24
2396.48	20.5
2397.4	29
2398.33	23
2399.25	25
2400.18	24.5
2401.1	25
2402.03	26.5
2402.95	22
2403.87	23.5
2404.8	26
2405.72	26
2406.64	27
2407.57	24.5
2408.49	23.5
2409.41	27
2410.34	23
2411.26	24.5
2412.18	25.5
2413.1	27
2414.03	26
2414.95	26.5
2415.87	27
2416.79	23
2417.72	24
2418.64	25
2419.56	26
2420.48	24
2421.4	24.5
2422.32	23.5
2423.24	26
2424.16	24
2425.09	24.5
2426.01	22.5
2426.93	24
2427.85	25
2428.77	24
2429.69	22.5
2430.61	24
2431.53	22
2432.45	24
2433.37	26
2434.29	25
2435.21	25.5
2436.12	25
2437.04	28
2437.96	24
2438.88	25.5
2439.8	21
2440.72	26.5
2441.64	25
2442.55	23.5
2443.47	24
2444.39	23
2445.31	24
2446.23	24.5
2447.14	22.5
2448.06	25.5
2448.98	21
2449.9	25
2450.81	21
2451.73	23
2452.65	25
2453.56	22.5
2454.48	25.5
2455.39	21.5
2456.31	23.5
2457.23	22
2458.14	24
2459.06	26.5
2459.97	23
2460.89	21
2461.8	20.5
2462.72	25
2463.64	24
2464.55	22
2465.47	25.5
2466.38	25
2467.29	23
2468.21	27.5
2469.12	24
2470.04	24.5
2470.95	27
2471.86	22
2472.78	26
2473.69	24
2474.61	22
2475.52	22.5
2476.43	28
2477.35	27.5
2478.26	24
2479.17	25
2480.08	24
2481	21.5
2481.91	23.5
2482.82	19
2483.73	26
2484.64	25
2485.56	24.5
2486.47	24
2487.38	23.5
2488.29	22
2489.2	26
2490.11	22.5
2491.03	27
2491.94	23
2492.85	25
2493.76	25
2494.67	25
2495.58	26.5
2496.49	25.5
2497.4	26
2498.31	23
2499.22	24
2500.13	24.5
2501.04	27
2501.95	28
2502.86	24
2503.77	24.5
2504.67	27
2505.58	24.5
2506.49	26
2507.4	24.5
2508.31	24
2509.22	21
2510.13	25.5
2511.03	25
2511.94	26
2512.85	25.5
2513.76	27
2514.66	20.5
2515.57	24.5
2516.48	26
2517.39	24
2518.29	20
2519.2	24.5
2520.11	27.5
2521.01	26
2521.92	25
2522.83	23
2523.73	25
2524.64	20.5
2525.54	24.5
2526.45	21.5
2527.36	27.5
2528.26	26
2529.17	25.5
2530.07	28.5
2530.98	23.5
2531.88	26
2532.79	29
2533.69	21.5
2534.6	28
2535.5	24.5
2536.41	22
2537.31	25
2538.21	24.5
2539.12	24.5
2540.02	22
2540.93	21
2541.83	28
2542.73	24
2543.64	26.5
2544.54	25
2545.44	26.5
2546.34	24.5
2547.25	26
2548.15	25
2549.05	24.5
2549.96	26.5
2550.86	25
2551.76	26.5
2552.66	25
2553.56	22.5
2554.46	24.5
2555.37	27.5
2556.27	24.5
2557.17	25.5
2558.07	20.5
2558.97	22
2559.87	25
2560.77	26
2561.67	24.5
2562.57	23
2563.47	24
2564.37	24
2565.27	23.5
2566.17	28
2567.07	25
2567.97	27.5
2568.87	23
2569.77	28.5
2570.67	24
2571.57	21
2572.47	25
2573.37	27
2574.27	23.5
2575.17	21
2576.06	25.5
2576.96	25
2577.86	23
2578.76	24
2579.66	22.5
2580.56	26.5
2581.45	26.5
2582.35	27
2583.25	26
2584.15	24
2585.04	23
2585.94	27
2586.84	24
2587.73	24.5
2588.63	25.5
2589.53	21
2590.42	22.5
2591.32	21
2592.22	29
2593.11	24.5
2594.01	25
2594.9	23
2595.8	24.5
2596.69	26
2597.59	25.5
2598.48	25
2599.38	24
2600.28	20
2601.17	26.5
2602.06	24
2602.96	24.5
2603.85	24
2604.75	24.5
2605.64	26
2606.54	27.5
2607.43	24
2608.32	21
2609.22	25
2610.11	27
2611	22
2611.9	23.5
2612.79	27
2613.68	22
2614.58	23
2615.47	26
2616.36	25
2617.25	24.5
2618.15	19.5
2619.04	25
2619.93	27.5
2620.82	27
2621.71	26.5
2622.61	25
2623.5	30.5
2624.39	25
2625.28	23.5
2626.17	31
2627.06	21.5
2627.95	24
2628.84	18.5
2629.74	26.5
2630.63	23.5
2631.52	26
2632.41	24.5
2633.3	24
2634.19	27.5
2635.08	26
2635.97	23
2636.85	25.5
2637.74	28
2638.63	24.5
2639.52	22.5
2640.41	27
2641.3	23
2642.19	23
2643.08	22
2643.97	26.5
2644.86	18
2645.74	23
2646.63	27
2647.52	27
2648.41	26.5
2649.3	22.5
2650.18	22
2651.07	25.5
2651.96	25.5
2652.85	26
2653.73	26
2654.62	28
2655.51	23.5
2656.39	24
2657.28	26
2658.17	26
2659.05	23
2659.94	25.5
2660.83	23.5
2661.71	25
2662.6	22
2663.48	23
2664.37	24.5
2665.25	26
2666.14	22
2667.02	24.5
2667.91	24
2668.79	27.5
2669.68	21
2670.56	24.5
2671.45	25.5
2672.33	26
2673.22	26
2674.1	26.5
2674.98	24
2675.87	26
2676.75	25.5
2677.64	20.5
2678.52	22.5
2679.4	23.5
2680.29	24
2681.17	25
2682.05	25
2682.94	26.5
2683.82	28.5
2684.7	22.5
2685.58	27
2686.47	25.5
2687.35	23.5
2688.23	25
2689.11	27
2689.99	19.5
2690.88	24
2691.76	20
2692.64	21
2693.52	24
2694.4	27.5
2695.28	23
2696.16	25
2697.04	22
2697.92	22
2698.8	27
2699.69	28.5
2700.57	22.5
2701.45	25
2702.33	26
2703.21	25.5
2704.09	23
2704.97	24.5
2705.84	27
2706.72	27
2707.6	21.5
2708.48	29
2709.36	26.5
2710.24	30
2711.12	20
2712	26
2712.88	25
2713.75	23.5
2714.63	24
2715.51	28
2716.39	25
2717.27	22.5
2718.14	23.5
2719.02	28
2719.9	26
2720.78	21
2721.65	24.5
2722.53	21.5
2723.41	22
2724.28	25
2725.16	26.5
2726.04	25
2726.92	25.5
2727.79	29.5
2728.67	29.5
2729.54	25
2730.42	21
2731.3	25.5
2732.17	26.5
2733.05	29
2733.92	23.5
2734.8	23
2735.67	24
2736.55	23
2737.42	23
2738.3	23.5
2739.17	27.5
2740.05	22.5
2740.92	25
2741.79	23
2742.67	26.5
2743.54	27
2744.42	26.5
2745.29	27.5
2746.16	28
2747.04	28.5
2747.91	23.5
2748.78	24
2749.66	23
2750.53	27
2751.4	23
2752.28	23
2753.15	23.5
2754.02	23
2754.89	23.5
2755.77	22.5
2756.64	28.5
2757.51	25.5
2758.38	26.5
2759.25	25.5
2760.13	29
2761	24.5
2761.87	25.5
2762.74	23
2763.61	25
2764.48	25
2765.35	27.5
2766.22	25.5
2767.09	27
2767.96	22
2768.83	25.5
2769.71	24.5
2770.57	25
2771.44	27
2772.32	26.5
2773.18	26.5
2774.05	25
2774.92	25.5
2775.79	23.5
2776.66	26
2777.53	23
2778.4	28
2779.27	25
2780.14	28
2781.01	20
2781.87	24.5
2782.74	28
2783.61	26
2784.48	26
2785.35	26.5
2786.21	24.5
2787.08	25
2787.95	27
2788.82	24
2789.69	26
2790.55	29
2791.42	27
2792.29	22
2793.15	26
2794.02	26.5
2794.89	30
2795.75	29.5
2796.62	29.5
2797.49	23
2798.35	24
2799.22	25
2800.08	24
2800.95	27.5
2801.81	28
2802.68	23
2803.55	22.5
2804.41	25
2805.28	29
2806.14	25.5
2807	28
2807.87	24
2808.73	25
2809.6	26.5
2810.46	30.5
2811.33	24.5
2812.19	29
2813.06	25.5
2813.92	29
2814.78	27.5
2815.65	25.5
2816.51	24.5
2817.37	26
2818.24	27
2819.1	29
2819.96	29
2820.83	28
2821.69	26
2822.55	24.5
2823.41	22.5
2824.28	29.5
2825.14	26.5
2826	28
2826.86	24
2827.72	21
2828.58	29
2829.45	25.5
2830.31	27
2831.17	27.5
2832.03	29.5
2832.89	24
2833.75	26
2834.61	26
2835.47	26.5
2836.33	26.5
2837.2	28
2838.05	25
2838.92	26.5
2839.78	28.5
2840.64	29
2841.49	25
2842.35	30
2843.21	28
2844.07	24
2844.93	27.5
2845.79	27
2846.65	26
2847.51	25.5
2848.37	28
2849.23	28.5
2850.09	25
2850.94	25.5
2851.8	25
2852.66	27.5
2853.52	28
2854.38	26
2855.23	23.5
2856.09	28.5
2856.95	26
2857.81	27.5
2858.67	25
2859.52	26
2860.38	29.5
2861.24	26
2862.09	26.5
2862.95	25
2863.81	25
2864.66	22.5
2865.52	28
2866.38	28
2867.23	26
2868.09	27
2868.94	28.5
2869.8	26
2870.65	24
2871.51	27.5
2872.37	30
2873.22	30
2874.08	29
2874.93	32
2875.79	28.5
2876.64	31
2877.49	32.5
2878.35	33
2879.2	35
2880.06	32.5
2880.91	32.5
2881.77	35.5
2882.62	34
2883.47	32.5
2884.33	36.5
2885.18	36.5
2886.03	38
2886.89	35.5
2887.74	37
2888.59	37
2889.45	40
2890.3	39.5
2891.15	43
2892	43
2892.86	42
2893.71	42
2894.56	45.5
2895.41	47
2896.27	48
2897.12	54
2897.97	56.5
2898.82	60.5
2899.67	63
2900.52	63
2901.37	66
2902.23	66.5
2903.08	74
2903.93	74.5
2904.78	78
2905.63	80
2906.48	73
2907.33	73
2908.18	72
2909.03	72
2909.88	69.5
2910.73	68
2911.58	66
2912.43	53
2913.28	56
2914.13	52
2914.98	55.5
2915.83	49
2916.67	44
2917.52	41
2918.37	45
2919.22	39
2920.07	39.5
2920.92	33.5
2921.77	35
2922.61	32
2923.46	35.5
2924.31	37.5
2925.16	30
2926	32
2926.85	35
2927.7	28.5
2928.55	30
2929.39	30
2930.24	28.5
2931.09	30.5
2931.94	32
2932.78	30
2933.63	29.5
2934.47	31.5
2935.32	27
2936.17	27.5
2937.01	31.5
2937.86	26
2938.7	26.5
2939.55	31.5
2940.4	27.5
2941.24	27.5
2942.09	29
2942.93	29
2943.78	30.5
2944.62	27
2945.47	26
2946.31	26.5
2947.16	32.5
2948	31
2948.84	32.5
2949.69	30.5
2950.53	35.5
2951.38	33.5
2952.22	28
2953.06	34
2953.91	34.5
2954.75	37
2955.59	34.5
2956.44	37.5
2957.28	37
2958.12	40.5
2958.97	39
2959.81	41.5
2960.65	39
2961.5	42
2962.34	47.5
2963.18	51
2964.02	46
2964.86	46.5
2965.71	47.5
2966.55	44.5
2967.39	48.5
2968.23	49.5
2969.07	41
2969.91	43
2970.75	46.5
2971.6	40.0073
2972.44	37.9373
2973.28	41.3823
2974.12	39.0245
2974.96	40.2219
2975.8	38.3527
2976.64	32.6647
2977.48	28.9854
2978.32	33.2279
2979.16	32.4366
2980	29.2171
2980.84	31.5984
2981.68	30.6359
2982.52	25.2813
2983.36	31.4156
2984.2	26.5987
2985.04	25.9585
2985.88	27.5138
2986.71	26.1748
2987.55	28.5827
2988.39	29.3553
2989.23	25.9285
2990.07	26.7393
2990.91	26.9951
2991.75	27.8571
2992.58	20.8357
2993.42	26.3163
2994.26	22.6538
2995.1	27.7605
2995.93	24.7136
2996.77	26.8155
2997.61	22.8446
2998.45	26.2621
2999.28	26.6059
3000.12	22.7557
3000.96	24.6844
3001.79	24.2279
3002.63	21.2504
3003.47	20.0271
3004.3	28.1404
3005.14	23.8078
3005.98	23.8784
3006.81	22.7795
3007.65	22.9407
3008.48	24
3009.32	22.2784
3010.15	23.0326
3010.99	22.0829
3011.82	24.0815
3012.66	26.598
3013.5	24.1649
3014.33	25.3264
3015.17	24.2646
3016	21.6359
3016.83	23.4522
3017.67	22.5
3018.5	24.9288
3019.34	23.2688
3020.17	23.2394
3021.01	25.3732
3021.84	24.0808
3022.67	21.1658
3023.51	24.9458
3024.34	22.6034
3025.17	22.1589
3026.01	23
3026.84	23.3618
3027.67	22.6121
3028.51	24.1198
3029.34	21.6524
3030.17	21.5118
3031	22.9038
3031.84	24.4442
3032.67	23.8587
3033.5	23.7839
3034.33	24.5412
3035.17	25.2486
3036	25.0778
3036.83	23.8163
3037.66	22.3068
3038.49	23.8759
3039.32	24.7476
3040.15	23.9676
3040.99	21.5567
3041.82	22.4042
3042.65	23.8398
3043.48	23.1796
3044.31	24.2465
3045.14	24.7501
3045.97	24.981
3046.8	24.3415
3047.63	23.7545
3048.46	22.4885
3049.29	22.422
3050.12	24.9743
3050.95	26.6394
3051.78	22.5738
3052.61	23.2825
3053.44	24.1155
3054.27	24.8344
3055.1	24.1495
3055.92	23.4565
3056.75	20.2536
3057.27	19
3058.11	22
3058.94	24.5
3059.77	23.5
3060.61	22
3061.44	25
3062.27	18.5
3063.11	21
3063.94	22
3064.77	21
3065.6	22.5
3066.43	24
3067.27	22
3068.1	24.5
3068.93	23.5
3069.76	23.5
3070.59	20.5
3071.42	21
3072.26	21.5
3073.09	23
3073.92	22.5
3074.75	25
3075.58	21
3076.41	24
3077.24	23.5
3078.07	22.5
3078.9	23.5
3079.73	25
3080.56	26.5
3081.39	21.5
3082.22	22.5
3083.05	21.5
3083.88	22.5
3084.71	22.5
3085.54	21
3086.37	22.5
3087.2	21
3088.03	20.5
3088.86	23
3089.69	21
3090.51	21.5
3091.34	23
3092.17	26
3093	19.5
3093.83	22
3094.66	22.5
3095.48	20
3096.31	23.5
3097.14	25
3097.97	22.5
3098.79	25.5
3099.62	21
3100.45	22.5
3101.28	22
3102.1	24
3102.93	23
3103.76	24.5
3104.58	26
3105.41	23
3106.24	26.5
3107.06	23
3107.89	24.5
3108.72	22
3109.54	27
3110.37	25
3111.19	22.5
3112.02	20
3112.84	25.5
3113.67	25
3114.49	25
3115.32	21.5
3116.15	26
3116.97	24
3117.8	25
3118.62	24.5
3119.44	23.5
3120.27	21
3121.09	25
3121.92	23.5
3122.74	22
3123.57	21.5
3124.39	23
3125.21	26.5
3126.04	23.5
3126.86	25.5
3127.68	-118.5
3128.51	27
3129.33	22
3130.15	27
3130.98	22.5
3131.8	24
3132.62	21
3133.44	27
3134.27	24
3135.09	25.5
3135.91	22.5
3136.73	25
3137.56	26.5
3138.38	24.5
3139.2	24.5
3140.02	27
3140.84	21
3141.67	25.5
3142.49	26
3143.31	23
3144.13	24.5
3144.95	25
3145.77	22
3146.59	20
3147.41	24
3148.23	23.5
3149.05	23
3149.87	23.5
3150.69	23
3151.51	22
3152.33	24
3153.15	24
3153.97	24.5
3154.79	26
3155.61	25
3156.43	23.5
3157.25	26
3158.07	20
3158.89	26
3159.71	24
3160.53	24
3161.35	22
3162.17	25
3162.98	25.5
3163.8	22
3164.62	26
3165.44	23.5
3166.26	22
3167.07	24.5
3167.89	24
3168.71	21.5
3169.53	26.5
3170.35	21
3171.16	27.5
3171.98	23
3172.8	25
3173.61	23.5
3174.43	21
3175.25	24
3176.06	21
3176.88	25
3177.7	23.5
3178.51	27
3179.33	22
3180.15	26.5
3180.96	25
3181.78	24.5
3182.59	24
3183.41	28
3184.22	27.5
3185.04	26
3185.85	23.5
3186.67	25
3187.49	24
3188.3	22
3189.12	21.5
3189.93	24.5
3190.74	23
3191.56	24.5
3192.37	22.5
3193.19	22
3194	23.5
3194.82	23.5
3195.63	22.5
3196.44	26
3197.26	22.5
3198.07	22
3198.88	21
3199.7	24.5
3200.51	24.5
3201.32	25.5
3202.14	24.5
3202.95	23.5
3203.76	23.5
3204.58	22.5
3205.39	30
3206.2	24
3207.01	27.5
3207.83	23
3208.64	25.5
3209.45	24.5
3210.26	23
3211.07	22.5
3211.88	22
3212.7	24.5
3213.51	21
3214.32	25
3215.13	21.5
3215.94	22
3216.75	23
3217.56	21
3218.37	22
3219.18	26
3220	25.5
3220.8	24
3221.62	20
3222.43	25.5
3223.24	21.5
3224.05	23
3224.86	23.5
3225.67	24
3226.47	24.5
3227.28	23
3228.09	26
3228.9	21
3229.71	24.5
3230.52	21
3231.33	24
3232.14	21
3232.95	22
3233.76	24
3234.56	20
3235.37	22.5
3236.18	26.5
3236.99	24.5
3237.8	23
3238.61	25
3239.41	22
3240.22	26.5
3241.03	24.5
3241.84	27
3242.64	22.5
3243.45	23
3244.26	22
3245.07	26
3245.87	24.5
3246.68	23
3247.49	24
3248.29	24
3249.1	24
3249.9	24.5
3250.71	22.5
3251.52	21.5
3252.32	26.5
3253.13	25
3253.93	21
3254.74	26
3255.55	24
3256.35	20.5
3257.16	22
3257.96	27
3258.77	23
3259.57	25
3260.38	19
3261.18	24.5
3261.99	24.5
3262.79	22
3263.6	26
3264.4	23.5
3265.2	25.5
3266.01	26.5
3266.81	25
3267.62	26.5
3268.42	21.5
3269.22	26
3270.03	21
3270.83	25.5
3271.63	24
3272.44	25
3273.24	21
3274.04	22
3274.85	22
3275.65	21
3276.45	24.5
3277.25	23
3278.06	23.5
3278.86	23.5
3279.66	22
3280.46	22.5
3281.26	23
3282.07	22
3282.87	21.5
3283.67	26
3284.47	23.5
3285.27	25.5
3286.07	20.5
3286.87	23
3287.68	23.5
3288.48	24
3289.28	23
3290.08	26.5
3290.88	26.5
3291.68	21.5
3292.48	25
3293.28	21
3294.08	24
3294.88	25
3295.68	23
3296.48	20
3297.28	22
3298.08	26
3298.88	24.5
3299.68	24.5
3300.48	21.5
3301.28	26
3302.08	23
3302.88	24
3303.67	25
3304.47	23.5
3305.27	24
3306.07	25
3306.87	21.5
3307.67	24.5
3308.46	23
3309.26	25
3310.06	27
3310.86	23
3311.66	22
3312.45	25
3313.25	25.5
3314.05	24
3314.85	23
3315.64	23.5
3316.44	22
3317.24	26
3318.03	21
3318.83	25.5
3319.63	24
3320.42	25
3321.22	25
3322.02	24.5
3322.81	20
3323.61	20
3324.4	26.5
3325.2	22.5
3326	28
3326.79	24.5
3327.59	25.5
3328.38	23
3329.18	21
3329.97	26.5
3330.77	24
3331.56	24
3332.36	24
3333.15	23
3333.95	24.5
3334.74	26.5
3335.54	27
3336.33	25
3337.13	22.5
3337.92	22
3338.71	19.5
3339.51	26
3340.3	24
3341.1	26.5
3341.89	25.5
3342.68	22
3343.48	24.5
3344.27	21
3345.06	23.5
3345.85	25
3346.65	23.5
3347.44	22
3348.23	25.5
3349.03	25.5
3349.82	25.5
3350.61	24
3351.4	24
3352.19	23.5
3352.99	26
3353.78	23
3354.57	25
3355.36	23
3356.15	24
3356.94	20
3357.74	24
3358.53	22.5
3359.32	23
3360.11	26
3360.9	25.5
3361.69	25.5
3362.48	23.5
3363.27	27.5
3364.06	23.5
3364.85	22.5
3365.64	25.5
3366.43	20.5
3367.22	23
3368.01	23
3368.8	24
3369.59	23
3370.38	22
3371.17	19
3371.96	22
3372.75	23.5
3373.54	24
3374.33	23
3375.12	25
3375.91	27
3376.69	22.5
3377.48	25.5
3378.27	19.5
3379.06	20
3379.85	20
3380.64	24.5
3381.42	24
3382.21	26
3383	25.5
3383.79	21
3384.58	28
3385.36	24.5
3386.15	26.5
3386.94	29
3387.73	22.5
3388.51	27.5
3389.3	23
3390.09	26
3390.87	25
3391.66	19
3392.45	25.5
3393.23	22
3394.02	21.5
3394.81	21.5
3395.59	23
3396.38	25
3397.16	25
3397.95	21.5
3398.74	27.5
3399.52	25
3400.31	21
3401.09	27
3401.88	24.5
3402.66	21
3403.45	24.5
3404.23	25.5
3405.02	20.5
3405.8	24.5
3406.59	26
3407.37	24.5
3408.15	24
3408.94	23
3409.72	20
3410.51	27.5
3411.29	24
3412.07	23.5
3412.86	21
3413.64	24
3414.42	24
3415.21	26
3415.99	23.5
3416.78	24.5
3417.56	22.5
3418.34	26
3419.12	22
3419.91	23.5
3420.69	21
3421.47	22
3422.25	23
3423.04	25.5
3423.82	27
3424.6	24
3425.38	22
3426.16	25.5
3426.95	27
3427.73	24.5
3428.51	17
3429.29	23.5
3430.07	21.5
3430.85	26.5
3431.63	24.5
3432.42	24.5
3433.2	24.5
3433.98	25
3434.76	21.5
3435.54	22
3436.32	22.5
3437.1	23
3437.88	26
3438.66	22
3439.44	22.5
3440.22	23
3441	25
3441.78	25.5
3442.56	21
3443.34	23
3444.12	27
3444.9	27
3445.68	25
3446.45	24
3447.23	24.5
3448.01	25.5
3448.79	25.5
3449.57	24
3450.35	21.5
3451.13	22.5
3451.91	17.5
3452.68	24
3453.46	23
3454.24	25
3455.02	25
3455.79	21
3456.57	23.5
3457.35	24.5
3458.13	25
3458.91	23.5
3459.68	25
3460.46	27
3461.24	26.5
3462.01	27
3462.79	24
3463.57	25.5
3464.34	23
3465.12	22
3465.9	21
3466.67	21
3467.45	23
3468.22	25.5
3469	21
3469.78	26
3470.55	24
3471.33	27
3472.1	23.5
3472.88	27
3473.65	24
3474.43	25
3475.2	26
3475.98	25
3476.75	21
3477.53	28.5
3478.3	23
3479.08	21
3479.85	22.5
3480.63	24.5
3481.4	24.5
3482.18	21
3482.95	28
3483.72	21
3484.5	24
3485.27	23
3486.04	24
3486.82	26
3487.59	21.5
3488.36	20
3489.14	26
3489.91	22
3490.68	25
3491.46	25.5
3492.23	25
3493	23
3493.77	22
3494.55	24
3495.32	21
3496.09	24.5
3496.86	22.5
3497.64	24
3498.41	21.5
3499.18	20
3499.95	22
