#Acq. time (s)=	5
#Accumulations=	5
#Range (cm-¹)=	100...3500
#Windows=	4
#Autofocus=	Off
#AutoExposure=	Off
#Spike filter=	Multiple accum.
#Delay time (s)=	0
#Binning=	1
#Readout mode=	Signal
#DeNoise=	Off
#ICS correction=	Off
#Dark correction=	Off
#Inst. Process=	Off
#Instrument=	LabRAM HR Evol
#Detector=	Syncerity OE
#Objective=	x100_VIS
#Grating=	600 (500nm)
#ND Filter=	25%
#Laser=	633nm_Edge
#Hole=	100.021
#Range=	Visible
#Project=	verificaciones
#Sample=	a4
#Site=	plain
#Title=	bolusa4plain
#Remark=	
#Date=	09.01.2026 14:36
#Acquired=	09.01.2026 14:36:07
100.695	28.5
101.978	27.5
103.262	30.5
104.545	29.5
105.829	28
107.112	24
108.394	27.5
109.676	29.5
110.958	30.5
112.24	28
113.522	29.5
114.803	30
116.084	31
117.365	29.5
118.646	29
119.927	29
121.207	27
122.487	28.5
123.767	26.5
125.047	30
126.326	31
127.606	29.5
128.885	32.5
130.164	28.5
131.442	30
132.721	28
133.999	29.5
135.277	27.5
136.555	30
137.831	32.5
139.109	27.5
140.386	33.5
141.663	31
142.94	35.5
144.216	31
145.493	31.5
146.769	31
148.043	33
149.319	35
150.595	34
151.87	33.5
153.145	30
154.42	32
155.693	34.5
156.968	35.5
158.242	36.5
159.516	32
160.79	38
162.062	31
163.336	31
164.609	31
165.882	30
167.153	35
168.426	35.5
169.699	33
170.971	32.5
172.241	30
173.513	33
174.785	30.5
176.055	33
177.326	28
178.597	33.5
179.866	34.5
181.137	33
182.407	31.5
183.676	35.5
184.946	36.5
186.216	38
187.484	29
188.753	31.5
190.022	37
191.29	30
192.558	33
193.825	30.5
195.094	34
196.36	30
197.628	35
198.896	30.5
200.162	34
201.429	33
202.695	31.5
203.962	33
205.227	29.5
206.493	30
207.758	29
209.024	26.5
210.289	34
211.554	31.5
212.818	30
214.083	31
215.347	30
216.612	32.5
217.875	27.5
219.138	35
220.402	32
221.665	27.5
222.928	29.5
224.19	33.5
225.454	26
226.715	28.5
227.977	28.5
229.24	29.5
230.501	28.5
231.762	31
233.024	30
234.284	28.5
235.546	26.5
236.806	31
238.066	31.5
239.327	27
240.587	29.5
241.846	25
243.105	25
244.365	23.5
245.624	24
246.882	26
248.142	25
249.4	27
250.658	25.5
251.916	29.5
253.174	28.5
254.432	28.5
255.689	29.5
256.945	29.5
258.202	27
259.46	26
260.716	32
261.972	29
263.228	29
264.483	26
265.74	29
266.996	30
268.251	25
269.505	25
270.76	29.5
272.014	26
273.268	25.5
274.522	26.5
275.778	29.5
277.031	25.5
278.285	28.5
279.538	26
280.791	29.5
282.043	26.5
283.296	30
284.548	25
285.8	29
287.052	23
288.304	30
289.556	29.5
290.807	24.5
292.058	25.5
293.309	29
294.56	24.5
295.81	27.5
297.061	28
298.311	28
299.561	28
300.81	27
302.06	26
303.309	26.5
304.558	28.5
305.807	28.5
307.056	27
308.305	25
309.551	30
310.8	29
312.047	27
313.295	30
314.543	26.5
315.79	30.5
317.037	27.5
318.284	26
319.529	27.5
320.776	23.5
322.022	30.5
323.268	26.5
324.514	31
325.758	25.5
327.004	25
328.249	27
329.494	27.5
330.739	29.5
331.982	27
333.227	25
334.471	29.5
335.715	26
336.958	26
338.201	25
339.445	30
340.687	30
341.93	30
343.173	27
344.414	28.5
345.657	29
346.899	27
348.14	26
349.381	28.5
350.623	28
351.863	26
353.104	26.5
354.346	32
355.585	30
356.826	27
358.065	27.5
359.305	25.5
360.545	28
361.784	25.5
363.023	29
364.261	26.5
365.501	31
366.738	26
367.977	30
369.216	26
370.453	28
371.691	26
372.928	28
374.166	28.5
375.402	27.5
376.64	26.5
377.876	26
379.111	21.5
380.348	29
381.584	30.5
382.82	29
384.055	26.5
385.291	26
386.526	31
387.76	27
388.996	25.5
390.229	26
391.465	28
392.698	28.5
393.931	27
395.166	26.5
396.399	28.5
397.632	29.5
398.866	30.5
400.098	24.5
401.33	27.5
402.563	29.5
403.795	30
405.027	24
406.259	26.5
407.491	27.5
408.721	25
409.954	26.5
411.184	29
412.415	29
413.645	28
414.876	23
416.106	24
417.335	25.5
418.565	25
419.794	24.5
421.024	26.5
422.253	24.5
423.482	29.5
424.71	27.5
425.938	29.5
427.168	28.5
428.396	26
429.623	28
430.851	29
432.078	29
433.305	30
434.532	25
435.758	29
436.986	27
438.212	26.5
439.438	32
440.664	33
441.89	27
443.115	30.5
444.34	23.5
445.566	28
446.79	30.5
448.015	26.5
449.24	30.5
450.464	27
451.688	26
452.912	26
454.135	31.5
455.359	26.5
456.582	24
457.805	29
459.028	27.5
460.251	28.5
461.473	30.5
462.696	26
463.918	30
465.14	28
466.36	28.5
467.582	34.5
468.803	32
470.024	29.5
471.245	32
472.466	30
473.686	31
474.907	31
476.126	31.5
477.346	35
478.565	34
479.785	34
481.004	38
482.224	37
483.441	40.5
484.66	40.5
485.879	41
487.097	43.5
488.314	48.5
489.532	44
490.75	45.5
491.967	42.5
493.184	41
494.401	40.5
495.618	39.5
496.835	35.5
498.05	39
499.267	39.5
500.483	34.5
501.698	35.5
502.913	33
504.129	38
505.343	32.5
506.559	36
507.774	35.5
508.987	30.5
510.202	34.5
511.415	32
512.63	29
513.844	31
515.056	31
516.27	28
517.482	30
518.696	27.5
519.907	28
521.121	28.5
522.332	28
523.545	29
524.757	27.5
525.968	30
527.18	29
528.39	27
529.602	27.5
530.812	27
532.023	31
533.233	28.5
534.443	26
535.653	28
536.862	22
538.073	27.5
539.281	30
540.491	27.5
541.7	29.5
542.908	26.5
544.117	27.5
545.325	25.5
546.534	29.5
547.741	28
548.949	27
550.157	25.5
551.364	24
552.57	26.5
553.778	27.5
554.985	29
556.191	29
557.398	27.5
558.604	27.5
559.809	27
561.014	26
562.221	26
563.426	30.5
564.63	26
565.835	27
567.041	29
568.245	25
569.449	27
570.653	24.5
571.856	29.5
573.061	26
574.264	28
575.467	28.5
576.67	28.5
577.873	26
579.076	23
580.279	30
581.481	25.5
582.683	28
583.884	28.5
585.086	27
586.287	27.5
587.488	25.5
588.689	28.5
589.891	27.5
591.092	28.5
592.292	28
593.492	27
594.692	28.5
595.892	26.5
597.092	26.5
598.291	25
599.49	27
600.689	30
601.888	25
603.087	25.5
604.285	23
605.483	30
606.681	26
607.879	26
609.077	29
610.274	29.5
611.472	28
612.668	28.5
613.865	30
615.061	26
616.258	29.5
617.454	28.5
618.65	27.5
619.846	30
621.042	26
622.238	25
623.432	25.5
624.627	26.5
625.822	30
627.017	33.5
628.212	28
629.406	27.5
630.599	26
631.793	23
632.987	22.5
634.181	29.5
635.373	29
636.566	28.5
637.76	28
638.953	27
640.144	29
641.337	27
642.529	25.5
643.721	23.5
644.912	25.5
646.104	27.5
647.295	28.5
648.485	30
649.677	28.5
650.868	30
652.057	23
653.248	32
654.437	29
655.628	23.5
656.818	29.5
658.006	26.5
659.196	31
660.384	27.5
661.574	29
662.763	29
663.951	25
665.14	26.5
666.327	26
667.515	32.5
668.702	26
669.891	27
671.077	27.5
672.265	29
673.451	28.5
674.638	29.5
675.824	30.5
677.011	31.5
678.197	29
679.383	29.5
680.568	29
681.755	33.5
682.939	30.5
684.124	30
685.309	33.5
686.494	30
687.679	31.5
688.863	30.5
690.046	30.5
691.231	31
692.414	31
693.599	27.5
694.781	30
695.964	33
697.148	28.5
698.33	31.5
699.512	32.5
700.694	30
701.877	36
703.059	33
704.24	31
705.423	35.5
706.604	36
707.784	36
708.965	38
710.147	39
711.327	39
712.507	32.5
713.687	38.5
714.867	33
716.048	28
717.227	30.5
718.406	30.5
719.585	31
720.764	30
721.942	30
723.122	32
724.3	28
725.478	26
726.656	28
727.834	29.5
729.011	26
730.189	31
731.366	24
732.543	26.5
733.719	28
734.896	23
736.072	28
737.249	31.5
738.426	27
739.602	29.5
740.777	29
741.953	27.5
743.128	30.5
744.303	29
745.477	24
746.651	22.5
747.826	28
749	26.5
750.174	28.5
751.348	27.5
752.522	29
753.696	27
754.869	31
756.043	28.5
757.216	33
758.389	25
759.561	23
760.732	23
761.905	33.5
763.077	26.5
764.249	25
765.421	32
766.592	27.5
767.762	24
768.934	27.5
770.105	26
771.275	30
772.446	25.5
773.615	29
774.786	25
775.956	25
777.126	29.5
778.294	28.5
779.464	26
780.633	29
781.801	27.5
782.97	31.5
784.139	27.5
785.306	28
786.475	27.5
787.643	33.5
788.81	25
789.978	29.5
791.146	31
792.312	30
793.479	29
794.647	30.5
795.812	27
796.979	29.5
798.144	32
799.311	28.5
800.477	27.5
801.642	30
802.808	27
803.972	27.5
805.138	27.5
806.302	28.5
807.467	28.5
808.631	23
809.796	28
810.959	27.5
812.124	27.5
813.287	27
814.451	32.5
815.614	31
816.777	25.5
817.94	25
819.102	29
820.265	29.5
821.427	28
822.59	27.5
823.751	29.5
824.912	24.5
826.074	30
827.235	23.5
828.397	27
829.558	25.5
830.718	27
831.879	28.5
833.039	24
834.199	27.5
835.359	27
836.519	29.5
837.679	23.5
838.838	25
839.998	28.5
841.156	27
842.315	28.5
843.473	25.5
844.633	26
845.791	25.5
846.948	26.5
848.106	23.5
849.263	23
850.422	28.5
851.579	27.5
852.736	26
853.892	27
855.049	27
856.205	28
857.363	27.5
858.519	26
859.674	28
860.83	25
861.986	28
863.141	32.5
864.296	25
865.451	28.5
866.605	26
867.76	27
868.914	28
870.069	27.5
871.224	21.5
872.378	30
873.531	25.5
874.685	27.5
875.838	28.5
876.991	31
878.144	23.5
879.296	28
880.448	25.5
881.6	29
882.753	28
883.905	27
885.057	24.5
886.208	24
887.36	29
888.511	26.5
889.662	25.5
890.813	24.5
891.964	27.5
893.113	22.5
894.264	27
895.414	24.5
896.564	26
897.714	27
898.864	25
900.012	23
901.161	26
902.31	21.5
903.459	25.5
904.607	25
905.756	22
906.904	26
908.052	23
909.199	28.5
910.347	31.5
911.495	28
912.643	26
913.789	28
914.936	25
916.083	24.5
917.229	26
918.375	32.5
919.522	28.5
920.667	27.5
921.813	23.5
922.959	29.5
924.104	24.5
925.249	29.5
926.393	22.5
927.539	29
928.684	24.5
929.827	25
930.972	22
932.115	23.5
933.26	24.5
934.403	22.5
935.547	24
936.689	25.5
937.833	24
938.975	30.5
940.119	22
941.26	29
942.404	25
943.545	22
944.688	24
945.829	27
946.971	23
948.112	24.5
949.253	25
950.394	25
951.535	27.5
952.676	27
953.816	26
954.956	26
956.097	26
957.236	25
958.377	26
959.516	24
960.655	26
961.793	25
962.933	23
964.071	25
965.21	32.5
966.349	25
967.487	23
968.624	24
969.762	24.5
970.901	23.5
972.038	22
973.175	26.5
974.311	25.5
975.449	27.5
976.586	27
977.722	26.5
978.858	26
979.994	26.5
981.131	22.5
982.267	29.5
983.402	26
984.537	28.5
985.672	25
986.807	25
987.942	26
989.076	27.5
990.211	25
991.346	23.5
992.48	25
993.614	25
994.748	26.5
995.881	27
997.014	28
998.148	28
999.28	26.5
1000.41	25.5
1001.55	24.5
1002.68	27
1003.81	25
1004.94	29
1006.07	24.5
1007.21	21
1008.34	27
1009.47	23
1010.6	24.5
1011.73	23.5
1012.86	27
1013.99	26.5
1015.12	25.5
1016.25	22.5
1017.38	24.5
1018.51	22
1019.64	24.5
1020.77	27
1021.9	24.5
1023.03	26.5
1024.16	27
1025.29	27.5
1026.42	27.5
1027.54	21
1028.67	25
1029.8	24.5
1030.93	27.5
1032.06	24.5
1033.18	24
1034.31	25.5
1035.44	27
1036.56	24
1037.69	28
1038.82	25.5
1039.94	24
1041.07	24
1042.2	27
1043.32	26
1044.45	23
1045.57	24.5
1046.7	23
1047.82	28
1048.95	23.5
1050.07	23.5
1051.2	26
1052.32	30
1053.45	27
1054.57	23.5
1055.69	27
1056.82	22
1057.94	27.5
1059.06	26
1060.19	26
1061.31	26.5
1062.43	29
1063.55	21.5
1064.68	26.5
1065.8	23
1066.92	28.5
1068.04	26
1069.16	29.5
1070.28	26.5
1071.41	28
1072.53	23.5
1073.65	27
1074.77	24.5
1075.89	23.5
1077.01	23
1078.13	30
1079.25	26
1080.37	25.5
1081.49	28
1082.61	21.5
1083.73	26.5
1084.85	28
1085.96	21.5
1087.08	22
1088.2	26
1089.32	24.5
1090.44	25.5
1091.56	25.5
1092.67	24.5
1093.79	21.5
1094.91	27
1096.03	30.5
1097.14	26.5
1098.26	24
1099.38	27
1100.49	21
1101.61	23
1102.73	25.5
1103.84	24
1104.96	25
1106.07	26.5
1107.19	26.5
1108.3	27.5
1109.42	27
1110.53	28.5
1111.65	21.5
1112.76	25
1113.88	26.5
1114.99	26.5
1116.1	30
1117.22	27.5
1118.33	23
1119.44	27.5
1120.56	24
1121.67	27
1122.78	25
1123.9	24
1125.01	24.5
1126.12	28
1127.23	23.5
1128.34	26
1129.46	28.5
1130.57	24.5
1131.68	26
1132.79	25
1133.9	24.5
1135.01	23.5
1136.12	24.5
1137.23	22.5
1138.34	26
1139.45	23.5
1140.56	24.5
1141.67	24.5
1142.78	27.5
1143.89	22
1145	26.5
1146.11	25.5
1147.22	28
1148.33	26
1149.44	18
1150.54	25.5
1151.65	27
1152.76	20
1153.87	21.5
1154.97	25.5
1156.08	25
1157.19	23
1158.3	25
1159.4	20.5
1160.51	23
1161.62	22.5
1162.72	26.5
1163.83	25.5
1164.93	27
1166.04	24.5
1167.15	25
1168.25	25.5
1169.36	24.5
1170.46	24
1171.57	23.5
1172.67	23
1173.78	24
1174.88	21.5
1175.98	26
1177.09	24.5
1178.19	24.5
1179.3	24
1180.4	27.5
1181.5	25
1182.61	21
1183.71	24.5
1184.81	21
1185.91	29.5
1187.02	24
1188.12	26.5
1189.22	23
1190.32	23
1191.42	23
1192.53	25.5
1193.63	21.5
1194.73	28.4832
1195.83	23.5099
1196.93	24.5405
1198.03	22.5702
1199.13	25.4139
1200.23	24.0801
1201.33	22.2081
1202.43	24.5072
1203.53	25.3716
1204.63	22.3183
1205.73	23.1197
1206.83	24.1229
1207.93	25.7573
1209.02	25.3475
1210.12	25.1177
1211.22	25.4248
1212.32	26.6549
1213.42	24.8428
1214.52	24.9232
1215.61	26.5418
1216.71	24.8573
1217.81	22.7586
1218.91	24.4674
1220	25.26
1221.1	24.317
1222.2	26.4763
1223.29	24.8966
1224.39	24.3325
1225.49	25.0716
1226.58	26.8675
1227.68	25.8691
1228.77	23.7446
1229.87	23.9242
1230.96	23
1232.06	22.3462
1233.15	21.1848
1234.25	22.9046
1235.34	24.1681
1236.44	22.2885
1237.53	22.4169
1238.63	25
1239.72	25.5696
1240.81	23.0243
1241.91	22.9573
1243	26.1411
1244.09	24.4215
1245.19	21.7257
1246.28	22.5456
1247.37	21.5884
1248.46	23.0431
1249.56	26.0416
1250.65	26.4894
1251.74	25.2697
1252.83	25.0572
1253.92	25.7429
1255.01	22.4335
1256.11	25.4348
1257.2	26.0461
1258.29	23.1493
1259.38	26.4716
1260.47	23.8369
1261.56	24.2945
1262.65	24.6998
1263.74	27.8649
1264.83	25.6048
1265.92	24.4276
1267.01	28.7152
1268.1	24.9423
1269.19	24.9699
1270.27	24.5364
1271.36	25.5367
1272.45	23.1942
1273.54	26.8194
1274.63	26.4891
1275.72	24.2751
1276.8	24.6363
1277.89	24.9367
1278.98	25.8216
1280.07	25.009
1281.15	24.6309
1282.24	23.0094
1283.33	24.8631
1284.41	25.801
1285.5	24.1823
1286.59	25.0356
1287.67	24.3205
1288.76	24.8445
1289.84	21.0687
1290.93	26.905
1292.01	25.8036
1293.1	26.7906
1294.19	22.5704
1295.27	22.9203
1296.35	27.4003
1297.44	28.2937
1298.52	22.4605
1299.61	23.8175
1300.69	23.7878
1301.78	24.6045
1302.86	26.2944
1303.94	25.6435
1305.03	22.9207
1306.11	23.4555
1306.4	24
1307.49	24.5
1308.57	25.5
1309.66	23.5
1310.75	22.5
1311.84	24.5
1312.92	24
1314.01	24
1315.1	24
1316.19	26.5
1317.27	23.5
1318.36	26
1319.45	22.5
1320.53	23
1321.62	22.5
1322.7	20.5
1323.79	20
1324.88	27
1325.96	24
1327.05	28
1328.13	25
1329.21	21
1330.3	23.5
1331.38	29
1332.47	23.5
1333.55	24
1334.64	26.5
1335.72	21
1336.8	24.5
1337.89	26.5
1338.97	30
1340.05	24
1341.14	26.5
1342.22	24
1343.3	18
1344.39	23
1345.47	24
1346.55	26.5
1347.63	24
1348.71	21.5
1349.79	24
1350.88	22.5
1351.96	24.5
1353.04	23.5
1354.12	23
1355.2	23
1356.28	25
1357.36	20
1358.44	24.5
1359.52	22.5
1360.6	24.5
1361.68	24
1362.76	24.5
1363.84	22.5
1364.92	24
1366	23.5
1367.08	27
1368.16	25.5
1369.23	23.5
1370.31	22
1371.39	28.5
1372.47	22
1373.55	23
1374.62	26.5
1375.7	24.5
1376.78	25
1377.85	24
1378.93	22
1380.01	26
1381.09	24
1382.16	22
1383.24	25
1384.31	25.5
1385.39	25.5
1386.47	22
1387.54	24
1388.62	23.5
1389.69	25
1390.77	25
1391.84	25.5
1392.92	24
1393.99	24.5
1395.06	24.5
1396.14	26
1397.21	22
1398.29	25.5
1399.36	29
1400.43	28.5
1401.51	27
1402.58	28
1403.65	30
1404.73	24.5
1405.8	28
1406.87	25.5
1407.94	31.5
1409.02	23
1410.09	24.5
1411.16	26
1412.23	27.5
1413.3	25
1414.37	29.5
1415.45	27
1416.52	28.5
1417.59	23
1418.66	24.5
1419.73	27.5
1420.8	25.5
1421.87	24.5
1422.94	26
1424.01	28
1425.08	26.5
1426.15	26
1427.22	23.5
1428.29	24.5
1429.35	27
1430.42	24.5
1431.49	25.5
1432.56	26
1433.63	27
1434.7	22.5
1435.77	25
1436.83	27
1437.9	27.5
1438.97	26.5
1440.04	27.5
1441.1	24.5
1442.17	24
1443.24	28
1444.3	25
1445.37	27
1446.44	26.5
1447.5	28
1448.57	27
1449.63	24.5
1450.7	27
1451.76	25
1452.83	26
1453.89	23
1454.96	25.5
1456.02	30.5
1457.09	25.5
1458.15	25
1459.22	24.5
1460.28	23.5
1461.34	23
1462.41	26.5
1463.47	22
1464.54	22
1465.6	21.5
1466.66	25
1467.72	24
1468.79	24
1469.85	26
1470.91	23.5
1471.97	25
1473.04	27
1474.1	26.5
1475.16	28.5
1476.22	24.5
1477.28	25
1478.34	23.5
1479.4	29.5
1480.47	26
1481.53	27
1482.59	23
1483.65	24.5
1484.71	29.5
1485.77	27.5
1486.83	19
1487.89	25
1488.95	25
1490.01	25.5
1491.07	22
1492.12	25
1493.18	28
1494.24	26
1495.3	25
1496.36	26
1497.42	24.5
1498.47	21
1499.53	27
1500.59	23.5
1501.65	23
1502.7	25
1503.76	24
1504.82	23.5
1505.88	25
1506.93	22
1507.99	25.5
1509.05	23
1510.1	27.5
1511.16	24.5
1512.21	25
1513.27	22
1514.32	21
1515.38	27.5
1516.43	21
1517.49	21.5
1518.54	22.5
1519.6	19.5
1520.65	25
1521.71	24.5
1522.76	26
1523.82	20
1524.87	27
1525.92	23
1526.98	24
1528.03	24
1529.08	23.5
1530.14	26.5
1531.19	25.5
1532.24	25.5
1533.3	27.5
1534.35	24
1535.4	26
1536.45	27
1537.5	26
1538.56	22
1539.61	22
1540.66	26
1541.71	24
1542.76	24
1543.81	22
1544.86	23.5
1545.91	26
1546.96	26.5
1548.01	22.5
1549.06	25.5
1550.11	22.5
1551.16	28
1552.21	25
1553.26	27
1554.31	24.5
1555.36	24
1556.41	27.5
1557.46	27
1558.51	28
1559.55	28
1560.6	23
1561.65	25
1562.7	25.5
1563.75	25.5
1564.79	22
1565.84	27
1566.89	25
1567.94	26
1568.98	25.5
1570.03	25.5
1571.07	23
1572.12	23
1573.17	22.5
1574.21	29.5
1575.26	25
1576.31	21.5
1577.35	26.5
1578.4	26.5
1579.44	25.5
1580.49	24
1581.53	23.5
1582.58	27.5
1583.62	24
1584.67	23
1585.71	24
1586.75	26.5
1587.8	23
1588.84	25.5
1589.89	26.5
1590.93	26
1591.97	25.5
1593.02	24
1594.06	28
1595.1	27
1596.14	18.5
1597.19	24.5
1598.23	27
1599.27	24
1600.31	28
1601.35	23.5
1602.4	24.5
1603.44	24.5
1604.48	27.5
1605.52	23.5
1606.56	28
1607.6	24
1608.64	31
1609.68	26.5
1610.72	24
1611.76	25
1612.8	27.5
1613.84	27.5
1614.88	26.5
1615.92	23
1616.96	28.5
1618	25.5
1619.04	27
1620.08	24
1621.12	21.5
1622.16	24
1623.19	26.5
1624.23	26.5
1625.27	25
1626.31	25
1627.35	25.5
1628.38	21
1629.42	31.5
1630.46	23
1631.5	24
1632.53	23
1633.57	28
1634.61	28
1635.64	22
1636.68	25
1637.71	27
1638.75	25.5
1639.79	25.5
1640.82	24.5
1641.86	23.5
1642.89	25
1643.93	24
1644.96	24
1646	26.5
1647.03	27
1648.07	26
1649.1	25
1650.14	29
1651.17	25
1652.2	29.5
1653.24	28.5
1654.27	26.5
1655.3	25
1656.34	26
1657.37	26.5
1658.4	26
1659.44	23.5
1660.47	27.5
1661.5	24
1662.53	24
1663.57	26.5
1664.6	26.5
1665.63	25
1666.66	23
1667.69	27.5
1668.72	24
1669.75	26
1670.79	26
1671.82	28.5
1672.85	26
1673.88	23.5
1674.91	24
1675.94	27.5
1676.97	23
1678	24.5
1679.03	26
1680.06	25.5
1681.09	27
1682.11	28
1683.14	25
1684.17	25
1685.2	24.5
1686.23	27
1687.26	27
1688.29	27
1689.32	29
1690.34	22.5
1691.37	25.5
1692.4	27.5
1693.43	23.5
1694.45	26
1695.48	27.5
1696.51	25.5
1697.53	26.5
1698.56	23
1699.59	26
1700.61	21
1701.64	28.5
1702.66	26
1703.69	23.5
1704.72	25
1705.74	25
1706.77	24.5
1707.79	21.5
1708.82	26.5
1709.84	23
1710.87	28.5
1711.89	25.5
1712.92	29
1713.94	26.5
1714.96	27
1715.99	18
1717.01	23.5
1718.04	23
1719.06	23
1720.08	26.5
1721.11	25.5
1722.13	26.5
1723.15	25
1724.17	26.5
1725.2	23
1726.22	28.5
1727.24	24.5
1728.26	23
1729.28	24.5
1730.31	25.5
1731.33	25
1732.35	26
1733.37	26
1734.39	23.5
1735.41	25.5
1736.43	24.5
1737.45	26.5
1738.47	26
1739.49	27
1740.51	27.5
1741.53	25
1742.55	24
1743.57	24
1744.59	27
1745.61	25.5
1746.63	26
1747.65	25
1748.67	29.5
1749.69	24.5
1750.71	24
1751.72	23.5
1752.74	24.5
1753.76	24
1754.78	28.5
1755.8	26.5
1756.81	23.5
1757.83	27.5
1758.85	24
1759.86	25.5
1760.88	25
1761.9	30.5
1762.91	23
1763.93	26
1764.95	24.5
1765.96	24.5
1766.98	18.5
1768	26
1769.01	24
1770.03	28
1771.04	25.5
1772.06	27
1773.07	23
1774.09	28.5
1775.1	27
1776.12	25
1777.13	27.5
1778.14	26
1779.16	25
1780.17	24.5
1781.19	24.5
1782.2	24
1783.21	25
1784.23	24
1785.24	25
1786.25	20
1787.27	24
1788.28	26
1789.29	26
1790.3	25.5
1791.32	29
1792.33	23
1793.34	26.5
1794.35	21
1795.36	24.5
1796.37	23
1797.38	24.5
1798.4	26
1799.41	24.5
1800.42	24
1801.43	25
1802.44	24.5
1803.45	25
1804.46	21.5
1805.47	26
1806.48	25
1807.49	30.5
1808.5	22
1809.51	23.5
1810.52	24
1811.53	26
1812.53	28
1813.54	27
1814.55	23.5
1815.56	26
1816.57	25.5
1817.58	26
1818.58	27.5
1819.59	27
1820.6	21
1821.61	23
1822.61	24
1823.62	20.5
1824.63	22
1825.64	24
1826.64	22
1827.65	26
1828.66	26
1829.66	26.5
1830.67	24.5
1831.67	25
1832.68	22
1833.68	22
1834.69	23.5
1835.7	23
1836.7	22
1837.71	28
1838.71	19
1839.71	26.5
1840.72	24
1841.72	24.5
1842.73	27
1843.73	25.5
1844.74	24
1845.74	26
1846.74	24.5
1847.75	24.5
1848.75	23
1849.75	26
1850.76	25
1851.76	25
1852.76	24.5
1853.76	24.5
1854.77	27
1855.77	27.5
1856.77	23
1857.77	25.5
1858.77	23
1859.78	24
1860.78	21
1861.78	22
1862.78	26.5
1863.78	26.5
1864.78	26.5
1865.78	23
1866.78	23.5
1867.78	20
1868.78	25
1869.78	25.5
1870.78	25
1871.78	25.5
1872.78	25.5
1873.78	27.5
1874.78	24.5
1875.78	26
1876.78	22
1877.78	22
1878.78	23
1879.77	26.5
1880.77	25
1881.77	24.5
1882.77	23
1883.77	20
1884.76	21
1885.76	26
1886.76	24
1887.76	21
1888.75	23
1889.75	29
1890.75	26
1891.74	25
1892.74	22
1893.74	27
1894.73	20.5
1895.73	23
1896.72	24
1897.72	26
1898.72	21.5
1899.71	25
1900.71	19.5
1901.7	26.5
1902.7	23
1903.69	24
1904.69	23.5
1905.68	22.5
1906.67	28
1907.67	27
1908.66	24
1909.66	22
1910.65	21
1911.64	24
1912.64	26
1913.63	22
1914.62	23.5
1915.62	24.5
1916.61	25
1917.6	27
1918.59	21.5
1919.59	22.5
1920.58	23.5
1921.57	23
1922.56	23
1923.55	23
1924.55	24.5
1925.54	25
1926.53	26
1927.52	24
1928.51	25.5
1929.5	23
1930.49	23
1931.48	23
1932.47	25.5
1933.46	24
1934.45	25
1935.44	24.5
1936.43	19.5
1937.42	20.5
1938.41	26.5
1939.4	24
1940.39	25
1941.38	27
1942.37	23
1943.36	24
1944.34	27
1945.33	25
1946.32	24.5
1947.31	27
1948.3	25.5
1949.28	22
1950.27	28
1951.26	27
1952.25	27.5
1953.23	22
1954.22	27.5
1955.21	25
1956.2	25
1957.18	25.5
1958.17	29
1959.15	26
1960.14	23.5
1961.13	25
1962.11	22.5
1963.1	23
1964.08	23
1965.07	21
1966.05	26
1967.04	27
1968.02	23
1969.01	28
1969.99	24.5
1970.98	27
1971.96	25.5
1972.94	25
1973.93	25.5
1974.91	25.5
1975.9	23
1976.88	23
1977.86	27
1978.85	26
1979.83	22
1980.81	29
1981.8	23
1982.78	23
1983.76	26
1984.74	22.5
1985.72	22.5
1986.71	24
1987.69	24
1988.67	22.5
1989.65	23.5
1990.63	26.5
1991.61	22
1992.6	25
1993.58	20
1994.56	23.5
1995.54	25
1996.52	27
1997.5	26
1998.48	26
1999.46	24
2000.44	22
2001.42	22
2002.4	25
2003.38	23.5
2004.36	24.5
2005.34	21
2006.32	21
2007.29	20.5
2008.27	26.5
2009.25	27
2010.23	27
2011.21	25
2012.19	21
2013.16	26.5
2014.14	24
2015.12	25
2016.1	24
2017.07	23
2018.05	23.5
2019.03	26.5
2020	25
2020.98	25
2021.96	20
2022.93	22.5
2023.91	23
2024.89	24
2025.86	20.5
2026.84	23.5
2027.81	22.5
2028.79	24.5
2029.77	26
2030.74	26.5
2031.72	25.5
2032.69	22.5
2033.67	23
2034.64	21.5
2035.61	23.5
2036.59	26
2037.56	29
2038.54	25
2039.51	22
2040.48	24.5
2041.46	23.5
2042.43	23
2043.41	24
2044.38	24.5
2045.35	21.5
2046.32	23
2047.3	24
2048.27	23
2049.24	23
2050.21	27.5
2051.19	20.5
2052.16	22
2053.13	23
2054.1	22
2055.07	24.5
2056.04	24.5
2057.02	24
2057.99	20.5
2058.96	24
2059.93	27
2060.9	20
2061.87	25
2062.84	23.5
2063.81	23
2064.78	21.5
2065.75	23.5
2066.72	21.5
2067.69	23.5
2068.66	28
2069.63	26.5
2070.6	23.5
2071.57	19.5
2072.53	22.5
2073.5	29.5
2074.47	24
2075.44	20
2076.41	22.5
2077.38	23
2078.34	23
2079.31	23
2080.28	24
2081.25	25
2082.21	23
2083.18	23.5
2084.15	22
2085.12	20
2086.08	23.5
2087.05	21.5
2088.02	23
2088.98	20
2089.95	22
2090.91	23
2091.88	26
2092.85	22.5
2093.81	24
2094.78	22
2095.74	25
2096.71	22.5
2097.67	24.5
2098.64	21.5
2099.6	22
2100.57	26.5
2101.53	24
2102.5	25
2103.46	22.5
2104.42	24.5
2105.39	23
2106.35	22.5
2107.31	24
2108.28	22
2109.24	22
2110.2	24
2111.17	24
2112.13	23.5
2113.09	22.5
2114.06	19
2115.02	22
2115.98	24.5
2116.94	28.5
2117.9	20.5
2118.86	25
2119.83	21
2120.79	23.5
2121.75	22.5
2122.71	23
2123.67	26
2124.63	26
2125.59	23
2126.55	23
2127.51	24
2128.48	25
2129.43	21
2130.4	26
2131.35	24
2132.31	21.5
2133.27	22.5
2134.23	24
2135.19	23.5
2136.15	22
2137.11	24
2138.07	22
2139.03	22
2139.99	20.5
2140.95	21.5
2141.9	23
2142.86	23.9706
2143.82	24.4036
2144.78	20.5693
2145.74	24.4539
2146.69	23.9287
2147.65	21.8962
2148.61	22.8795
2149.56	24.2308
2150.52	22.433
2151.48	24.0544
2152.44	18.611
2153.39	24.707
2154.35	21.1066
2155.3	22.7566
2156.26	23.9321
2157.22	23.223
2158.17	22.966
2159.13	25.3551
2160.08	23.3014
2161.04	19.9145
2161.99	21.3819
2162.95	25.29
2163.9	22.6092
2164.86	23.8147
2165.81	23.6189
2166.77	23.9121
2167.72	22.3714
2168.68	20.2347
2169.63	24.1111
2170.58	22.8064
2171.54	26.8688
2172.49	21.238
2173.44	21.5982
2174.4	20.7488
2175.35	22.6223
2176.3	22.6358
2177.26	22.6971
2178.21	22.3036
2179.16	24.736
2180.11	23.2219
2181.07	22.8492
2182.02	22.4415
2182.97	23.1001
2183.92	21.9646
2184.88	23.0231
2185.83	21.9665
2186.78	22.3874
2187.73	21.7389
2188.68	21.2139
2189.63	23.2725
2190.58	22.0196
2191.53	23.6825
2192.48	21.2333
2193.43	22.5025
2194.38	25.6437
2195.33	22.3902
2196.28	23.1009
2197.23	23.5079
2198.18	22.7853
2199.13	24.4588
2200.08	21.6456
2201.03	24.6763
2201.98	21.9389
2202.93	22.1165
2203.88	22.1936
2204.83	22
2205.78	21.0206
2206.72	23.8697
2207.67	21.3803
2208.62	21.8655
2209.57	21.509
2210.52	23.2273
2211.46	20.2234
2212.41	21.9204
2213.36	22.133
2214.31	20.8956
2215.25	23.1794
2216.2	23.7475
2217.15	21.3797
2218.09	21.5267
2219.04	18.9456
2219.99	24.1699
2220.93	21.9696
2221.88	23.0902
2222.83	22.6417
2223.77	26.6296
2224.72	22.7702
2225.66	22.6505
2226.61	22.7112
2227.55	23.5404
2228.5	21.7763
2229.44	21.2414
2230.39	19.5816
2231.33	22.5285
2232.28	23.911
2233.22	23.9519
2234.17	20.5142
2235.11	19.4733
2236.05	21.2312
2237	23.6273
2237.94	25.8457
2238.88	22.9426
2239.83	21.2412
2240.04	21
2240.98	19
2241.93	26.5
2242.88	24
2243.83	24
2244.78	18
2245.72	21
2246.67	21.5
2247.62	27
2248.56	23.5
2249.51	24
2250.46	18
2251.4	18.5
2252.35	24.5
2253.3	23.5
2254.24	23.5
2255.19	23
2256.14	22.5
2257.08	22
2258.03	23.5
2258.97	25
2259.92	23
2260.86	23
2261.81	20
2262.75	24.5
2263.7	20
2264.64	22
2265.59	25.5
2266.53	25
2267.48	24.5
2268.42	26
2269.36	25.5
2270.31	24
2271.25	22.5
2272.19	25
2273.14	23.5
2274.08	26
2275.02	22
2275.97	25
2276.91	25
2277.85	22
2278.8	19
2279.74	21.5
2280.68	22.5
2281.62	23
2282.56	22.5
2283.51	21
2284.45	21
2285.39	21.5
2286.33	23.5
2287.27	22.5
2288.21	22
2289.15	25
2290.09	24.5
2291.04	21
2291.98	22.5
2292.92	21
2293.86	20.5
2294.8	25
2295.74	21
2296.68	21
2297.62	25.5
2298.56	25
2299.5	22
2300.44	21
2301.37	20
2302.31	23.5
2303.25	24
2304.19	19
2305.13	24
2306.07	25
2307.01	23.5
2307.94	21.5
2308.88	25
2309.82	22
2310.76	23
2311.7	19.5
2312.63	24
2313.57	22.5
2314.51	25.5
2315.44	23.5
2316.38	26
2317.32	21
2318.26	26.5
2319.19	22
2320.13	23
2321.06	23
2322	20
2322.94	27
2323.87	25
2324.81	23
2325.74	24
2326.68	25.5
2327.61	25.5
2328.55	23.5
2329.48	24.5
2330.42	22
2331.35	23.5
2332.29	22
2333.22	21.5
2334.16	25
2335.09	19.5
2336.02	23
2336.96	23.5
2337.89	25
2338.83	20
2339.76	22.5
2340.69	20.5
2341.63	24
2342.56	24
2343.49	26.5
2344.42	26
2345.36	23
2346.29	22
2347.22	23
2348.15	23.5
2349.09	26.5
2350.02	22
2350.95	24
2351.88	22
2352.81	23
2353.74	24
2354.68	22.5
2355.61	25
2356.54	26
2357.47	24
2358.4	24.5
2359.33	22.5
2360.26	19
2361.19	21
2362.12	19.5
2363.05	24
2363.98	24
2364.91	24
2365.84	24
2366.77	22
2367.7	22
2368.63	25.5
2369.56	24
2370.49	26.5
2371.41	25.5
2372.34	24.5
2373.27	22
2374.2	22.5
2375.13	21.5
2376.06	23.5
2376.98	27
2377.91	22.5
2378.84	25.5
2379.77	25
2380.69	26.5
2381.62	24
2382.55	22
2383.47	21
2384.4	25.5
2385.33	21
2386.25	24
2387.18	24.5
2388.11	22
2389.03	23
2389.96	25
2390.89	22
2391.81	24.5
2392.74	25.5
2393.66	20.5
2394.59	24.5
2395.51	26
2396.44	22
2397.36	23.5
2398.29	30
2399.21	25.5
2400.14	25
2401.06	20
2401.99	21
2402.91	23.5
2403.83	26
2404.76	24.5
2405.68	26
2406.6	24
2407.53	26
2408.45	20.5
2409.37	24
2410.3	23.5
2411.22	20
2412.14	23
2413.06	23
2413.99	20
2414.91	23
2415.83	27
2416.75	20
2417.68	23
2418.6	22.5
2419.52	22
2420.44	22
2421.36	22
2422.28	22
2423.2	26
2424.12	23.5
2425.05	21
2425.97	23
2426.89	24
2427.81	23
2428.73	21
2429.65	25.5
2430.57	26
2431.49	23.5
2432.41	24
2433.33	24
2434.25	29.5
2435.17	23.5
2436.08	25
2437	22.5
2437.92	23
2438.84	21.5
2439.76	26
2440.68	27.5
2441.6	22
2442.51	24.5
2443.43	26.5
2444.35	22.5
2445.27	22.5
2446.19	21.5
2447.1	21.5
2448.02	25
2448.94	23.5
2449.85	23.5
2450.77	26.5
2451.69	26
2452.61	21
2453.52	25
2454.44	23.5
2455.35	25
2456.27	22
2457.19	25
2458.1	22.5
2459.02	26
2459.94	24
2460.85	25.5
2461.77	24.5
2462.68	25.5
2463.6	22
2464.51	26
2465.43	24.5
2466.34	24.5
2467.25	22.5
2468.17	24
2469.08	20.5
2470	26.5
2470.91	22
2471.83	24
2472.74	19
2473.65	21
2474.57	24.5
2475.48	20.5
2476.39	25
2477.31	21.5
2478.22	23.5
2479.13	24
2480.04	23
2480.96	22
2481.87	22.5
2482.78	27
2483.69	27.5
2484.6	24
2485.52	23
2486.43	27
2487.34	25
2488.25	28
2489.16	22
2490.07	24
2490.99	27
2491.9	19
2492.81	29
2493.72	24
2494.63	25.5
2495.54	23
2496.45	23
2497.36	26
2498.27	19.5
2499.18	25
2500.09	24.5
2501	22
2501.91	25
2502.82	25.5
2503.73	20.5
2504.63	25.5
2505.54	18
2506.45	26
2507.36	23.5
2508.27	23
2509.18	21.5
2510.09	25
2510.99	24
2511.9	24
2512.81	24
2513.72	24
2514.62	25
2515.53	23
2516.44	26.5
2517.35	20.5
2518.25	22.5
2519.16	21.5
2520.07	28
2520.97	29
2521.88	24
2522.79	25
2523.69	24
2524.6	21
2525.51	24
2526.41	24
2527.32	28
2528.22	24.5
2529.13	22.5
2530.03	25.5
2530.94	27.5
2531.84	26.5
2532.75	21.5
2533.65	24
2534.56	23.5
2535.46	23
2536.37	24
2537.27	23
2538.17	25
2539.08	27.5
2539.98	23
2540.89	23
2541.79	25
2542.69	26
2543.6	25.5
2544.5	22
2545.4	24.5
2546.31	25.5
2547.21	23.5
2548.11	24.5
2549.01	23
2549.92	26
2550.82	21.5
2551.72	25
2552.62	20.5
2553.52	24.5
2554.42	25.5
2555.33	22.5
2556.23	28
2557.13	22.5
2558.03	23.5
2558.93	21
2559.83	24
2560.73	23.5
2561.63	24
2562.53	26
2563.43	25
2564.33	24.5
2565.24	22
2566.13	23
2567.04	24
2567.93	19
2568.83	23
2569.73	25
2570.63	23
2571.53	28
2572.43	25
2573.33	25
2574.23	25
2575.13	24.5
2576.03	23
2576.92	21.5
2577.82	22
2578.72	20.5
2579.62	22
2580.52	27.5
2581.41	26.5
2582.31	25
2583.21	25.5
2584.11	23
2585	27.5
2585.9	28.5
2586.8	22.5
2587.69	21.5
2588.59	23.5
2589.49	25
2590.38	22
2591.28	24
2592.18	25
2593.07	25.5
2593.97	24.5
2594.86	22
2595.76	26
2596.66	24
2597.55	25
2598.45	27
2599.34	25
2600.24	19.5
2601.13	23
2602.03	21.5
2602.92	21
2603.81	26.5
2604.71	28
2605.6	27
2606.5	24
2607.39	26.5
2608.28	24
2609.18	21.5
2610.07	25
2610.97	25
2611.86	28
2612.75	25.5
2613.64	21.5
2614.54	29
2615.43	24.5
2616.32	25.5
2617.22	23
2618.11	27.5
2619	22.5
2619.89	21
2620.78	22
2621.68	21
2622.57	24
2623.46	24
2624.35	24.5
2625.24	21
2626.13	23
2627.02	24.5
2627.91	22
2628.81	22
2629.7	22
2630.59	24
2631.48	24.5
2632.37	22.5
2633.26	28
2634.15	25.5
2635.04	23.5
2635.93	25.5
2636.82	25
2637.71	25.5
2638.59	26
2639.48	23
2640.37	24
2641.26	25
2642.15	26
2643.04	26.5
2643.93	24
2644.82	26.5
2645.71	22
2646.59	22
2647.48	20
2648.37	22
2649.26	23
2650.15	23
2651.03	24
2651.92	25
2652.81	26
2653.69	24.5
2654.58	25.5
2655.47	24
2656.35	24
2657.24	22
2658.13	26.5
2659.01	24
2659.9	21.5
2660.79	27
2661.67	26
2662.56	27
2663.44	27.5
2664.33	23
2665.22	21
2666.1	22
2666.99	25
2667.87	27.5
2668.76	26
2669.64	26.5
2670.52	27
2671.41	23.5
2672.29	23.5
2673.18	25
2674.06	26
2674.95	23
2675.83	23.5
2676.71	21.5
2677.6	25
2678.48	23
2679.36	22.5
2680.25	26.5
2681.13	27.5
2682.01	21.5
2682.9	24.5
2683.78	21.5
2684.66	24.5
2685.55	24
2686.43	20.5
2687.31	23.5
2688.19	24
2689.07	24
2689.96	26
2690.84	25
2691.72	23.5
2692.6	23
2693.48	21.5
2694.36	23
2695.24	23
2696.12	24.5
2697	26
2697.89	25.5
2698.77	25
2699.65	26
2700.53	23
2701.41	21.5
2702.29	23
2703.17	27
2704.05	24.5
2704.93	25
2705.81	26
2706.69	23
2707.57	24
2708.44	23.5
2709.32	24.5
2710.2	20
2711.08	25
2711.96	25
2712.84	22.5
2713.72	23
2714.59	22
2715.47	20
2716.35	22.5
2717.23	22
2718.11	29
2718.98	24
2719.86	26.5
2720.74	26.5
2721.62	27
2722.49	22.5
2723.37	24.5
2724.25	21.5
2725.12	25
2726	26.5
2726.88	24
2727.75	24
2728.63	24
2729.51	27.5
2730.38	22
2731.26	22.5
2732.13	23
2733.01	24
2733.88	25
2734.76	23
2735.63	25
2736.51	24
2737.38	24
2738.26	22
2739.13	26
2740.01	23
2740.88	24.5
2741.76	20.5
2742.63	23.5
2743.5	25
2744.38	23.5
2745.25	24
2746.13	27.5
2747	22
2747.87	24
2748.75	18.5
2749.62	26.5
2750.49	24
2751.36	24
2752.24	24.5
2753.11	26
2753.98	23.5
2754.86	19
2755.73	23.5
2756.6	18
2757.47	22
2758.34	22.5
2759.22	20.5
2760.09	23
2760.96	22.5
2761.83	25
2762.7	23
2763.57	26
2764.44	24.5
2765.31	26.5
2766.18	25.5
2767.06	24
2767.93	25
2768.8	21
2769.67	20
2770.54	22
2771.41	24
2772.28	23
2773.15	26
2774.02	25.5
2774.89	19
2775.75	25
2776.62	25
2777.49	25
2778.36	18
2779.23	27
2780.1	23.5
2780.97	23
2781.84	21.5
2782.71	27.5
2783.57	23
2784.44	25.5
2785.31	27.5
2786.18	26
2787.04	23
2787.91	25
2788.78	24
2789.65	23
2790.51	26.5
2791.38	27
2792.25	25.5
2793.12	23.5
2793.98	29
2794.85	19
2795.72	24
2796.58	26.5
2797.45	24
2798.31	25.5
2799.18	27.5
2800.05	26
2800.91	25.75
2801.78	24
2802.64	26
2803.51	25.5
2804.37	29
2805.24	23
2806.1	22
2806.97	21.5
2807.83	29.5
2808.7	22.5
2809.56	25
2810.43	27
2811.29	27
2812.15	25
2813.02	24
2813.88	23.5
2814.75	25.5
2815.61	22.5
2816.47	30
2817.34	20
2818.2	23
2819.06	25
2819.92	23
2820.79	26.5
2821.65	21
2822.51	27.5
2823.37	20
2824.24	25
2825.1	24.5
2825.96	23
2826.82	25.5
2827.69	26
2828.55	23.5
2829.41	26
2830.27	27
2831.13	26
2831.99	20
2832.85	27
2833.71	24
2834.58	19
2835.44	25.5
2836.3	26
2837.16	23
2838.02	24.5
2838.88	26
2839.74	22
2840.6	24
2841.46	25.5
2842.32	28.5
2843.18	25.5
2844.04	22.5
2844.9	26
2845.75	22
2846.61	27.5
2847.47	23
2848.33	26
2849.19	25.5
2850.05	26.5
2850.91	23.5
2851.77	24
2852.62	22
2853.48	26
2854.34	25
2855.2	23
2856.06	24
2856.91	25.5
2857.77	24.5
2858.63	28.5
2859.48	23.5
2860.34	24.5
2861.2	23.5
2862.06	26.5
2862.91	23
2863.77	27
2864.63	22.5
2865.48	22
2866.34	20
2867.19	26
2868.05	23
2868.91	29.5
2869.76	26
2870.62	24
2871.47	26.5
2872.33	23
2873.18	27
2874.04	25.5
2874.89	27.5
2875.75	24
2876.6	24.5
2877.46	26
2878.31	29
2879.17	27.5
2880.02	24
2880.88	28.5
2881.73	27.5
2882.58	26.5
2883.44	25.5
2884.29	26.5
2885.14	31.5
2886	31
2886.85	29.5
2887.7	25.5
2888.56	29.5
2889.41	31
2890.26	25.5
2891.12	28.5
2891.97	32
2892.82	30.5
2893.67	28
2894.52	32
2895.38	35
2896.23	36
2897.08	37.5
2897.93	38
2898.78	39.5
2899.64	36.5
2900.49	44.5
2901.34	40
2902.19	45.5
2903.04	40
2903.89	43
2904.74	46.5
2905.59	48.5
2906.44	47.5
2907.29	49.5
2908.14	47.5
2908.99	45
2909.84	47
2910.69	41
2911.54	42.5
2912.39	38
2913.24	41.5
2914.09	36.5
2914.94	38.5
2915.79	33.5
2916.64	31
2917.49	32
2918.34	35
2919.18	32
2920.03	33
2920.88	28
2921.73	31
2922.58	29
2923.42	26.5
2924.27	25.5
2925.12	29
2925.97	26
2926.82	28.5
2927.66	25
2928.51	25.5
2929.36	25
2930.2	28
2931.05	26
2931.9	29
2932.74	23
2933.59	21
2934.44	25.5
2935.28	24.5
2936.13	25.5
2936.98	24.5
2937.82	25
2938.67	24
2939.51	25
2940.36	27.5
2941.2	26
2942.05	25.5
2942.9	26.5
2943.74	24
2944.58	27
2945.43	25
2946.27	20
2947.12	29
2947.96	29.5
2948.81	26.5
2949.65	25.5
2950.5	25.5
2951.34	26
2952.18	24
2953.03	24
2953.87	29
2954.71	30
2955.56	29
2956.4	28.5
2957.24	24
2958.09	28
2958.93	30
2959.77	31
2960.62	33.5
2961.46	32
2962.3	29
2963.14	33
2963.98	33.5
2964.83	31.5
2965.67	32.5
2966.51	26.5
2967.35	31.5
2968.19	31.5
2969.04	30
2969.88	34.5
2970.72	32
2971.56	30.9927
2972.4	30.9421
2973.24	28.5211
2974.08	30.9384
2974.92	30.3815
2975.76	28.3608
2976.6	26.3613
2977.44	25.8544
2978.28	27.1462
2979.12	26.7754
2979.96	24.7625
2980.8	26.6141
2981.64	28.047
2982.48	22.4083
2983.32	25.8504
2984.16	25.7445
2985	22.9242
2985.84	25.3018
2986.68	21.2281
2987.52	23.4247
2988.35	23.6544
2989.19	25.0165
2990.03	23.0773
2990.87	26.4
2991.71	25.4135
2992.55	26.1922
2993.38	22.4854
2994.22	24.1155
2995.06	21.1823
2995.9	25.2925
2996.73	25.1044
2997.57	22.7964
2998.41	24.1781
2999.25	21.5168
3000.08	22.5515
3000.92	20.3995
3001.76	24.2058
3002.59	24.6565
3003.43	23.8998
3004.27	24.8716
3005.1	22.5423
3005.94	22.8563
3006.78	22.4098
3007.61	23.7082
3008.45	22.5067
3009.28	24.1507
3010.12	23.4826
3010.95	19.9857
3011.79	21.8488
3012.62	24.6034
3013.46	24.2672
3014.29	20.9337
3015.13	20.6851
3015.96	22.4612
3016.8	22.4932
3017.63	22.3552
3018.47	21.496
3019.3	19.8679
3020.14	24.4813
3020.97	21.7267
3021.8	23.3817
3022.64	22.1012
3023.47	22.5277
3024.3	20.2817
3025.14	20.6966
3025.97	22.1975
3026.8	22.5142
3027.64	21.0013
3028.47	23.74
3029.3	23.445
3030.14	20.5327
3030.97	21.1583
3031.8	22.223
3032.63	23.6634
3033.46	24.6406
3034.3	21.6794
3035.13	21.9876
3035.96	22.47
3036.79	23.2295
3037.62	24.8886
3038.46	21.2053
3039.29	21.7913
3040.12	23.0819
3040.95	23.2163
3041.78	20.598
3042.61	21.0466
3043.44	22.5989
3044.27	25.0768
3045.1	23.7816
3045.93	22.3173
3046.76	21.2298
3047.59	21.5873
3048.42	21.21
3049.25	21.3498
3050.08	20.5929
3050.91	20.57
3051.74	21.9471
3052.57	22.6044
3053.4	25.0796
3054.23	24.1176
3055.06	20.6199
3055.89	20.5175
3056.72	21.7346
3057.32	18.5
3058.15	17
3058.98	23
3059.82	22.5
3060.65	19
3061.48	22.5
3062.31	23.5
3063.15	22
3063.98	22
3064.81	24
3065.64	21.5
3066.48	22
3067.31	21
3068.14	21
3068.97	18
3069.8	21
3070.63	23
3071.47	21.5
3072.3	20
3073.13	22.5
3073.96	20.5
3074.79	21
3075.62	24
3076.45	24.5
3077.28	21
3078.11	23
3078.94	24
3079.77	21
3080.6	22.5
3081.43	26
3082.26	25.5
3083.09	22
3083.92	19
3084.75	22
3085.58	21.5
3086.41	21.5
3087.24	22
3088.07	21
3088.9	22.5
3089.73	21
3090.55	22
3091.38	22
3092.21	24
3093.04	22.5
3093.87	22.5
3094.7	22
3095.52	20
3096.35	23
3097.18	21.5
3098.01	27
3098.84	24.5
3099.66	25
3100.49	22
3101.32	23
3102.14	20.5
3102.97	24
3103.8	21.5
3104.62	23.5
3105.45	20.5
3106.28	21.5
3107.1	18
3107.93	24
3108.76	23
3109.58	24
3110.41	23
3111.23	25.5
3112.06	25
3112.89	20.5
3113.71	24.5
3114.54	25
3115.36	25
3116.19	23
3117.01	26
3117.84	22
3118.66	23
3119.49	25.5
3120.31	25.5
3121.13	25
3121.96	22.5
3122.78	22.5
3123.61	24
3124.43	21
3125.25	25
3126.08	26
3126.9	26.5
3127.73	21
3128.55	23
3129.37	23.5
3130.19	24
3131.02	22.5
3131.84	23
3132.66	23
3133.49	24.5
3134.31	22
3135.13	22
3135.95	22
3136.78	24.5
3137.6	18.5
3138.42	25.5
3139.24	24.5
3140.06	26.5
3140.88	23
3141.71	24.5
3142.53	22.5
3143.35	24
3144.17	22
3144.99	25.5
3145.81	22.5
3146.63	27
3147.45	25
3148.27	22.5
3149.09	28.5
3149.91	22
3150.73	26
3151.56	26
3152.37	24
3153.2	23
3154.01	19.5
3154.83	20
3155.65	24
3156.47	24.5
3157.29	25
3158.11	24
3158.93	20.5
3159.75	22.5
3160.57	25
3161.39	23.5
3162.21	23
3163.02	22
3163.84	23.5
3164.66	23.5
3165.48	23.5
3166.3	22.5
3167.11	24.5
3167.93	22
3168.75	24
3169.57	25.5
3170.39	24
3171.2	22.5
3172.02	24.5
3172.84	24.5
3173.65	20
3174.47	20.5
3175.29	26
3176.1	20
3176.92	22.5
3177.74	21.5
3178.55	21
3179.37	22.5
3180.19	23
3181	18.5
3181.82	25.5
3182.63	24.5
3183.45	23.5
3184.27	22.5
3185.08	18.5
3185.9	27.5
3186.71	18.5
3187.53	22
3188.34	24.5
3189.16	22.5
3189.97	24
3190.79	27
3191.6	25
3192.41	26.5
3193.23	21.5
3194.04	24.5
3194.86	23
3195.67	27.5
3196.48	23.5
3197.3	20
3198.11	22.5
3198.93	22
3199.74	25
3200.55	25
3201.36	22
3202.18	23.5
3202.99	22
3203.8	22.5
3204.62	23
3205.43	20.5
3206.24	22
3207.05	23.5
3207.87	24.5
3208.68	20
3209.49	21
3210.3	21
3211.11	22
3211.93	22
3212.74	21.5
3213.55	22.5
3214.36	23
3215.17	23
3215.98	23
3216.79	23
3217.6	24.5
3218.41	23
3219.22	22
3220.03	21
3220.85	24
3221.66	22.5
3222.47	20.5
3223.28	21.5
3224.09	20.5
3224.9	21.5
3225.71	21.5
3226.52	20
3227.33	24
3228.13	18.5
3228.94	28
3229.75	27
3230.56	22
3231.37	24.5
3232.18	23
3232.99	23
3233.8	22
3234.61	26.5
3235.41	21
3236.22	23
3237.03	24
3237.84	24
3238.65	21.5
3239.45	24.5
3240.26	22
3241.07	19
3241.88	23.5
3242.68	25
3243.49	19.5
3244.3	20.5
3245.1	22.5
3245.91	26
3246.72	23
3247.53	22
3248.33	22.5
3249.14	23
3249.95	21
3250.75	22
3251.56	23.5
3252.36	22
3253.17	27.5
3253.97	23
3254.78	23
3255.59	23
3256.39	24
3257.2	21
3258	25.5
3258.81	25.5
3259.61	23
3260.42	25.5
3261.22	22
3262.03	26
3262.83	25.5
3263.64	22.5
3264.44	22
3265.24	21.5
3266.05	23
3266.85	25
3267.66	22
3268.46	26.5
3269.26	24.5
3270.07	25
3270.87	19.5
3271.67	24
3272.48	22
3273.28	25
3274.08	18.5
3274.89	25
3275.69	25.5
3276.49	27
3277.29	26.5
3278.1	23.5
3278.9	20
3279.7	22.5
3280.5	20
3281.3	24
3282.11	23
3282.91	25.5
3283.71	21
3284.51	26
3285.31	27.5
3286.11	24.5
3286.91	24
3287.72	25.5
3288.52	25
3289.32	20
3290.12	22
3290.92	23
3291.72	21
3292.52	24
3293.32	22.5
3294.12	22.5
3294.92	23.5
3295.72	25
3296.52	23
3297.32	21.5
3298.12	26
3298.92	21.5
3299.72	21
3300.52	23.5
3301.32	23
3302.12	25
3302.92	22
3303.71	19
3304.51	27.5
3305.31	23.5
3306.11	24
3306.91	23
3307.71	25
3308.5	22
3309.3	24
3310.1	24.5
3310.9	26.5
3311.7	20
3312.49	23.5
3313.29	26
3314.09	23.5
3314.89	23
3315.68	26
3316.48	22.5
3317.28	25
3318.07	18
3318.87	24
3319.67	22
3320.46	20.5
3321.26	21.5
3322.06	26
3322.85	23
3323.65	23.5
3324.44	24.5
3325.24	26
3326.04	23.5
3326.83	22
3327.63	24.5
3328.42	23
3329.22	26
3330.01	22
3330.81	28
3331.6	23
3332.4	24
3333.19	24.5
3333.99	25.5
3334.78	23.5
3335.58	20.5
3336.37	23
3337.17	25
3337.96	20.5
3338.75	25
3339.55	21.5
3340.34	31
3341.13	23
3341.93	19.5
3342.72	23.5
3343.51	21.5
3344.31	24.5
3345.1	27
3345.89	24.5
3346.69	28.5
3347.48	21.5
3348.27	20
3349.06	25
3349.86	23
3350.65	20.5
3351.44	24.5
3352.23	22.5
3353.03	23
3353.82	26.5
3354.61	24
3355.4	20.5
3356.19	25
3356.98	23.5
3357.78	25.5
3358.57	20
3359.36	23
3360.15	22
3360.94	25.5
3361.73	22
3362.52	24
3363.31	22.5
3364.1	21.5
3364.89	22
3365.68	26.5
3366.47	28
3367.26	21.5
3368.05	27.5
3368.84	25.5
3369.63	24
3370.42	21
3371.21	24
3372	21.5
3372.79	23.5
3373.58	22
3374.37	25
3375.16	20
3375.95	21
3376.73	23.5
3377.52	21.5
3378.31	25.5
3379.1	25
3379.89	24
3380.68	23.5
3381.46	23.5
3382.25	23.5
3383.04	20.5
3383.83	21.5
3384.62	23.5
3385.4	21
3386.19	25.5
3386.98	23.5
3387.76	23.5
3388.55	24
3389.34	23
3390.13	24
3390.91	24
3391.7	26
3392.49	22
3393.27	21
3394.06	26.5
3394.84	24
3395.63	24.5
3396.42	23
3397.2	24
3397.99	24
3398.77	22
3399.56	21.5
3400.34	22
3401.13	24.5
3401.92	25
3402.7	22.5
3403.49	26.5
3404.27	25
3405.06	21.5
3405.84	24.5
3406.62	21
3407.41	27
3408.19	24
3408.98	25
3409.76	26.5
3410.55	22.5
3411.33	22
3412.11	21.5
3412.9	25
3413.68	26
3414.46	25.5
3415.25	26
3416.03	21.5
3416.81	24
3417.6	26
3418.38	25
3419.16	19
3419.95	20.5
3420.73	25.5
3421.51	26
3422.29	27
3423.08	21
3423.86	25
3424.64	19.5
3425.42	24
3426.2	24
3426.98	21
3427.77	22
3428.55	29.5
3429.33	23.5
3430.11	25
3430.89	26.5
3431.67	24
3432.45	23
3433.24	24.5
3434.02	21.5
3434.8	24.5
3435.58	22.5
3436.36	22
3437.14	24
3437.92	24
3438.7	27
3439.48	16.5
3440.26	24
3441.04	23
3441.82	22
3442.6	22
3443.38	22
3444.16	21
3444.94	24
3445.71	22.5
3446.49	25
3447.27	25.5
3448.05	27
3448.83	25.5
3449.61	22
3450.39	23.5
3451.17	24
3451.94	22.5
3452.72	23
3453.5	24
3454.28	23.5
3455.06	23
3455.83	23
3456.61	24
3457.39	21
3458.17	23.5
3458.94	24
3459.72	26
3460.5	24.5
3461.28	25
3462.05	23.5
3462.83	25
3463.61	22
3464.38	25
3465.16	20
3465.93	23.5
3466.71	24
3467.49	21
3468.26	23.5
3469.04	20
3469.82	23
3470.59	20
3471.37	22.5
3472.14	24.5
3472.92	23.5
3473.69	23.5
3474.47	21.5
3475.24	23
3476.02	25.5
3476.79	27
3477.57	22.5
3478.34	22
3479.12	24
3479.89	25
3480.67	26
3481.44	19
3482.21	21.5
3482.99	25.5
3483.76	22
3484.54	26
3485.31	19.5
3486.08	24
3486.86	25
3487.63	25
3488.4	19
3489.18	25
3489.95	23
3490.72	24.5
3491.5	25
3492.27	20
3493.04	25
3493.81	21
3494.59	21
3495.36	25
3496.13	23
3496.9	25
3497.67	28
3498.45	25.5
3499.22	24.5
3499.99	23
