#Acq. time (s)=	5
#Accumulations=	5
#Range (cm-¹)=	100...3500
#Windows=	4
#Autofocus=	Off
#AutoExposure=	Off
#Spike filter=	Multiple accum.
#Delay time (s)=	0
#Binning=	1
#Readout mode=	Signal
#DeNoise=	Off
#ICS correction=	Off
#Dark correction=	Off
#Inst. Process=	Off
#Instrument=	LabRAM HR Evol
#Detector=	Syncerity OE
#Objective=	x100_VIS
#Grating=	600 (500nm)
#ND Filter=	25%
#Laser=	633nm_Edge
#Hole=	100.021
#Range=	Visible
#Project=	verificaciones
#Sample=	a4
#Site=	plain
#Title=	bolusa4plain
#Remark=	
#Date=	09.01.2026 14:31
#Acquired=	09.01.2026 14:31:20
100.695	28
101.978	31.5
103.262	30
104.545	31
105.829	30
107.112	30
108.394	25.5
109.676	28
110.958	26.5
112.24	25
113.522	28
114.803	26
116.084	30
117.365	29
118.646	27.5
119.927	34
121.207	31.5
122.487	33.5
123.767	32
125.047	23.5
126.326	31.5
127.606	30.5
128.885	29.5
130.164	33
131.442	33
132.721	30
133.999	36
135.277	35
136.555	38
137.831	33.5
139.109	36
140.386	39.5
141.663	29
142.94	35.5
144.216	33.5
145.493	32
146.769	32
148.043	37
149.319	33
150.595	39
151.87	33
153.145	37.5
154.42	37
155.693	38
156.968	36
158.242	32
159.516	40
160.79	36
162.062	39.5
163.336	37
164.609	40.5
165.882	34.5
167.153	33
168.426	35
169.699	37
170.971	37
172.241	36
173.513	37.5
174.785	36.5
176.055	39.5
177.326	34
178.597	36
179.866	39
181.137	36
182.407	37.5
183.676	34.5
184.946	37
186.216	40
187.484	36
188.753	35.5
190.022	37.5
191.29	35
192.558	35.5
193.825	35.5
195.094	37.5
196.36	37.5
197.628	34
198.896	39
200.162	31
201.429	32.5
202.695	36.5
203.962	30.5
205.227	32
206.493	33.5
207.758	30.5
209.024	32.5
210.289	33.5
211.554	33.5
212.818	32
214.083	39
215.347	32
216.612	30.5
217.875	33
219.138	34.5
220.402	32
221.665	33
222.928	32.5
224.19	34.5
225.454	30
226.715	31
227.977	31.5
229.24	31
230.501	31
231.762	35
233.024	26.5
234.284	29.5
235.546	31
236.806	31.5
238.066	28
239.327	30
240.587	27.5
241.846	30
243.105	27.5
244.365	26.5
245.624	30
246.882	29.5
248.142	33
249.4	27
250.658	26.5
251.916	29.5
253.174	27.5
254.432	27
255.689	28
256.945	31
258.202	36.5
259.46	28
260.716	29.5
261.972	29.5
263.228	26
264.483	29
265.74	28
266.996	31
268.251	29
269.505	24
270.76	28
272.014	30
273.268	25.5
274.522	24.5
275.778	28.5
277.031	25.5
278.285	25.5
279.538	26
280.791	27.5
282.043	25
283.296	26
284.548	26.5
285.8	29.5
287.052	26
288.304	29.5
289.556	27.5
290.807	27.5
292.058	27
293.309	26
294.56	23
295.81	34
297.061	26
298.311	30
299.561	29.5
300.81	28
302.06	27
303.309	24
304.558	25.5
305.807	25
307.056	28
308.305	28.5
309.551	33
310.8	28
312.047	29
313.295	25
314.543	26.5
315.79	32
317.037	28
318.284	29
319.529	27
320.776	30
322.022	30
323.268	33
324.514	28.5
325.758	27
327.004	26.5
328.249	31
329.494	29.5
330.739	29
331.982	29
333.227	29
334.471	30.5
335.715	26
336.958	28.5
338.201	30.5
339.445	30
340.687	27
341.93	30.5
343.173	24
344.414	31
345.657	27
346.899	30.5
348.14	23.5
349.381	27.5
350.623	27
351.863	26.5
353.104	30.5
354.346	25
355.585	27.5
356.826	28
358.065	27.5
359.305	27
360.545	26.5
361.784	28
363.023	26
364.261	29
365.501	29.5
366.738	27.5
367.977	28.5
369.216	28.5
370.453	31.5
371.691	24
372.928	28
374.166	29.5
375.402	31
376.64	29
377.876	29.5
379.111	28.5
380.348	30
381.584	26
382.82	27.5
384.055	26.5
385.291	25.5
386.526	28
387.76	26
388.996	31.5
390.229	29
391.465	28.5
392.698	25
393.931	25
395.166	27
396.399	26.5
397.632	33
398.866	31
400.098	29.5
401.33	29
402.563	27.5
403.795	29
405.027	28.5
406.259	33.5
407.491	28.5
408.721	30
409.954	24.5
411.184	30.5
412.415	30
413.645	29
414.876	30
416.106	26.5
417.335	28
418.565	27
419.794	27
421.024	28.5
422.253	31.5
423.482	26.5
424.71	26
425.938	25.5
427.168	32
428.396	27
429.623	33
430.851	23
432.078	27
433.305	28
434.532	30
435.758	28.5
436.986	26
438.212	28
439.438	26
440.664	32
441.89	29
443.115	29
444.34	29.5
445.566	26
446.79	28
448.015	28
449.24	30
450.464	27
451.688	28.5
452.912	26
454.135	30.5
455.359	26
456.582	30
457.805	30
459.028	28
460.251	28.5
461.473	28.5
462.696	30.5
463.918	27.5
465.14	31.5
466.36	28.5
467.582	30.5
468.803	35
470.024	35.5
471.245	34.5
472.466	35
473.686	35.5
474.907	32.5
476.126	38
477.346	41
478.565	37
479.785	43
481.004	41.5
482.224	44
483.441	44
484.66	49
485.879	51.5
487.097	49
488.314	49
489.532	52
490.75	51
491.967	52
493.184	49
494.401	50.5
495.618	50
496.835	40
498.05	48
499.267	43.5
500.483	41
501.698	44
502.913	36
504.129	39
505.343	35
506.559	38
507.774	34
508.987	37.5
510.202	37.5
511.415	33
512.63	34.5
513.844	36
515.056	29
516.27	33
517.482	29
518.696	33.5
519.907	31
521.121	31.5
522.332	27
523.545	31
524.757	33
525.968	27
527.18	23
528.39	31.5
529.602	31
530.812	31
532.023	25.5
533.233	26.5
534.443	28.5
535.653	27.5
536.862	29.5
538.073	29.5
539.281	29
540.491	29.5
541.7	26
542.908	26.5
544.117	28.5
545.325	33
546.534	28.5
547.741	31
548.949	30
550.157	31
551.364	32.5
552.57	28
553.778	29
554.985	27
556.191	28
557.398	25.5
558.604	30
559.809	28
561.014	32
562.221	27
563.426	29
564.63	29.5
565.835	27.5
567.041	27
568.245	26
569.449	27.5
570.653	32
571.856	27
573.061	31.5
574.264	27.5
575.467	34
576.67	32.5
577.873	33
579.076	25.5
580.279	31
581.481	29
582.683	30
583.884	30.5
585.086	24
586.287	27.5
587.488	25.5
588.689	28.5
589.891	30.5
591.092	27.5
592.292	24.5
593.492	30
594.692	27
595.892	26.5
597.092	25
598.291	28.5
599.49	28
600.689	29
601.888	28
603.087	34
604.285	27.5
605.483	26.5
606.681	28
607.879	29.5
609.077	29
610.274	24
611.472	28
612.668	25.5
613.865	31
615.061	27
616.258	30.5
617.454	25.5
618.65	25
619.846	31
621.042	25.5
622.238	26.5
623.432	31.5
624.627	30
625.822	31
627.017	30.5
628.212	31.5
629.406	27
630.599	27
631.793	28.5
632.987	31.5
634.181	25
635.373	26.5
636.566	29
637.76	25
638.953	28.5
640.144	29
641.337	32
642.529	28.5
643.721	31
644.912	31
646.104	29.5
647.295	29
648.485	27.5
649.677	26.5
650.868	27
652.057	31
653.248	29
654.437	30
655.628	30
656.818	30.5
658.006	28.5
659.196	27.5
660.384	25
661.574	27.5
662.763	29
663.951	29.5
665.14	29
666.327	24
667.515	28
668.702	35.5
669.891	34.5
671.077	27
672.265	30.5
673.451	29
674.638	35.5
675.824	29
677.011	32
678.197	28.5
679.383	34
680.568	33
681.755	31
682.939	29
684.124	34
685.309	35
686.494	33
687.679	32.5
688.863	30.5
690.046	34
691.231	31.5
692.414	31
693.599	33.5
694.781	29
695.964	32
697.148	30
698.33	27.5
699.512	35
700.694	34
701.877	34
703.059	34.5
704.24	39.5
705.423	42
706.604	41.5
707.784	44.5
708.965	44.5
710.147	43
711.327	48
712.507	38
713.687	41
714.867	36
716.048	31.5
717.227	35.5
718.406	33
719.585	30.5
720.764	34.5
721.942	26.5
723.122	29
724.3	31.5
725.478	26.5
726.656	24.5
727.834	30.5
729.011	27
730.189	24.5
731.366	31.5
732.543	29
733.719	24
734.896	25.5
736.072	27
737.249	30
738.426	29
739.602	30
740.777	28.5
741.953	28.5
743.128	28.5
744.303	27
745.477	30.5
746.651	31
747.826	28
749	24
750.174	29
751.348	29.5
752.522	29
753.696	28
754.869	29.5
756.043	28.5
757.216	30.5
758.389	33
759.561	29
760.732	30
761.905	27.5
763.077	28
764.249	28
765.421	31.5
766.592	27.5
767.762	26.5
768.934	29
770.105	30.5
771.275	29
772.446	28
773.615	31.5
774.786	25
775.956	26.5
777.126	28
778.294	28.5
779.464	28
780.633	29
781.801	26
782.97	33.5
784.139	34
785.306	31.5
786.475	23.5
787.643	30
788.81	33.5
789.978	33.5
791.146	33
792.312	28.5
793.479	30
794.647	31
795.812	26.5
796.979	33.5
798.144	32
799.311	31
800.477	25
801.642	32.5
802.808	25
803.972	29.5
805.138	29
806.302	29.5
807.467	30
808.631	27
809.796	31
810.959	28
812.124	28
813.287	25.5
814.451	27.5
815.614	31
816.777	27.5
817.94	25
819.102	27.5
820.265	29.5
821.427	24
822.59	27
823.751	28.5
824.912	29
826.074	28.5
827.235	28
828.397	34.5
829.558	26
830.718	27
831.879	24
833.039	24
834.199	28.5
835.359	26.5
836.519	27.5
837.679	30.5
838.838	25
839.998	29
841.156	29.5
842.315	29
843.473	30.5
844.633	31
845.791	27.5
846.948	29.5
848.106	25.5
849.263	26
850.422	31
851.579	27
852.736	27
853.892	25.5
855.049	28
856.205	21.5
857.363	28
858.519	27
859.674	30.5
860.83	25
861.986	30
863.141	34
864.296	31
865.451	25.5
866.605	29.5
867.76	26
868.914	27
870.069	28
871.224	29.5
872.378	29.5
873.531	27.5
874.685	30.5
875.838	26.5
876.991	27
878.144	28.5
879.296	27
880.448	26.5
881.6	28
882.753	29
883.905	26.5
885.057	26.5
886.208	27
887.36	27.5
888.511	26.5
889.662	26
890.813	27.5
891.964	26.5
893.113	30
894.264	31.5
895.414	28
896.564	29.5
897.714	25.5
898.864	29.5
900.012	27.5
901.161	23.5
902.31	28.5
903.459	30
904.607	27.5
905.756	28.5
906.904	28.5
908.052	26.5
909.199	27
910.347	27.5
911.495	27
912.643	28.5
913.789	27.5
914.936	26
916.083	27
917.229	25
918.375	24
919.522	24
920.667	27
921.813	26
922.959	28.5
924.104	29.5
925.249	29
926.393	26
927.539	25.5
928.684	27
929.827	27.5
930.972	29
932.115	24
933.26	27.5
934.403	26
935.547	25
936.689	28
937.833	26.5
938.975	28
940.119	28.5
941.26	22
942.404	26
943.545	28
944.688	22
945.829	26
946.971	24
948.112	23.5
949.253	24
950.394	26.5
951.535	27
952.676	29.5
953.816	25
954.956	27
956.097	28
957.236	30
958.377	27.5
959.516	28
960.655	27
961.793	28
962.933	24.5
964.071	26.5
965.21	28
966.349	24
967.487	30
968.624	26.5
969.762	24.5
970.901	25
972.038	24.5
973.175	23
974.311	26.5
975.449	28.5
976.586	25
977.722	29
978.858	26
979.994	25
981.131	30
982.267	26
983.402	27.5
984.537	24.5
985.672	28
986.807	26
987.942	29
989.076	22.5
990.211	26
991.346	27
992.48	24.5
993.614	27.5
994.748	22
995.881	26.5
997.014	26
998.148	24
999.28	26
1000.41	27.5
1001.55	25
1002.68	27.5
1003.81	26
1004.94	23.5
1006.07	26
1007.21	26.5
1008.34	31
1009.47	28
1010.6	22
1011.73	28.5
1012.86	23.5
1013.99	25.5
1015.12	30
1016.25	26.5
1017.38	22
1018.51	24.5
1019.64	26
1020.77	25.5
1021.9	24.5
1023.03	27.5
1024.16	28
1025.29	25
1026.42	25
1027.54	23.5
1028.67	27
1029.8	27
1030.93	27
1032.06	26.5
1033.18	24.5
1034.31	27
1035.44	28
1036.56	22.5
1037.69	26
1038.82	25.5
1039.94	22
1041.07	26.5
1042.2	23
1043.32	23.5
1044.45	24
1045.57	26
1046.7	22
1047.82	24
1048.95	30
1050.07	24.5
1051.2	26.5
1052.32	23.5
1053.45	27
1054.57	27
1055.69	27
1056.82	25
1057.94	24
1059.06	23.5
1060.19	30
1061.31	27
1062.43	29.5
1063.55	24.5
1064.68	28
1065.8	28
1066.92	23
1068.04	28
1069.16	26.5
1070.28	25
1071.41	25.5
1072.53	29
1073.65	26
1074.77	22.5
1075.89	32
1077.01	25
1078.13	27
1079.25	23
1080.37	25.5
1081.49	25
1082.61	23.5
1083.73	24
1084.85	26.5
1085.96	26.5
1087.08	25.5
1088.2	28.5
1089.32	27
1090.44	25
1091.56	26.5
1092.67	20.5
1093.79	23.5
1094.91	26
1096.03	23.5
1097.14	25.5
1098.26	25
1099.38	29
1100.49	23.5
1101.61	24
1102.73	23
1103.84	27.5
1104.96	24
1106.07	25
1107.19	25
1108.3	23
1109.42	27
1110.53	24
1111.65	27
1112.76	21
1113.88	24
1114.99	23.5
1116.1	28.5
1117.22	25.5
1118.33	25.5
1119.44	26.5
1120.56	24.5
1121.67	24
1122.78	25
1123.9	26
1125.01	24.5
1126.12	25.5
1127.23	20.5
1128.34	28.5
1129.46	26
1130.57	23.5
1131.68	21.5
1132.79	21
1133.9	24
1135.01	28.5
1136.12	27.5
1137.23	23.5
1138.34	27.5
1139.45	27
1140.56	23
1141.67	25
1142.78	23.5
1143.89	22.5
1145	25
1146.11	23.5
1147.22	25
1148.33	23
1149.44	21.5
1150.54	26
1151.65	28.5
1152.76	25
1153.87	26.5
1154.97	25
1156.08	23.5
1157.19	23.5
1158.3	24.5
1159.4	25
1160.51	25
1161.62	23.5
1162.72	25
1163.83	26.5
1164.93	25.5
1166.04	27.5
1167.15	24.5
1168.25	29
1169.36	25
1170.46	24
1171.57	24
1172.67	23
1173.78	24.5
1174.88	26
1175.98	22
1177.09	23.5
1178.19	27.5
1179.3	26
1180.4	25
1181.5	23
1182.61	25.5
1183.71	26
1184.81	26.5
1185.91	23.5
1187.02	22.5
1188.12	24.5
1189.22	20.5
1190.32	22
1191.42	26.5
1192.53	21.5
1193.63	27
1194.73	25.4948
1195.83	22.0237
1196.93	25.0099
1198.03	21.9156
1199.13	24.4802
1200.23	22.905
1201.33	23.0503
1202.43	21.1816
1203.53	23.1905
1204.63	25.3646
1205.73	24.6848
1206.83	22.103
1207.93	28.9241
1209.02	23.0662
1210.12	25.0716
1211.22	22.1983
1212.32	21.1962
1213.42	24.4912
1214.52	26.9089
1215.61	23.9053
1216.71	23.5404
1217.81	27.3738
1218.91	24.7183
1220	21.5167
1221.1	26.1263
1222.2	20.8991
1223.29	24.5682
1224.39	23.7327
1225.49	23.9552
1226.58	29.0092
1227.68	23.8242
1228.77	23.4083
1229.87	26.1664
1230.96	21.4125
1232.06	24.8061
1233.15	25.6293
1234.25	23.9898
1235.34	21.3129
1236.44	25.518
1237.53	29.5324
1238.63	26.5111
1239.72	24.7075
1240.81	25.5558
1241.91	25.8107
1243	25.7978
1244.09	23.4161
1245.19	26.148
1246.28	26.6151
1247.37	23.1761
1248.46	22.2437
1249.56	22.9616
1250.65	26.9859
1251.74	25.0242
1252.83	24.7586
1253.92	26.4917
1255.01	24.5744
1256.11	26.5454
1257.2	25.2356
1258.29	23.1487
1259.38	24.4235
1260.47	25.607
1261.56	25.8617
1262.65	23.6482
1263.74	26.4852
1264.83	27.3251
1265.92	21.0956
1267.01	26.3114
1268.1	25.0593
1269.19	28.1097
1270.27	23.7522
1271.36	22.6133
1272.45	24.3471
1273.54	23.2054
1274.63	23.6812
1275.72	25.5534
1276.8	26.2726
1277.89	26.1034
1278.98	22.7919
1280.07	24.7769
1281.15	23.1309
1282.24	27.8765
1283.33	25.0076
1284.41	22.7647
1285.5	23.1455
1286.59	24.7598
1287.67	25.1506
1288.76	24.0536
1289.84	24.8748
1290.93	24.252
1292.01	24.911
1293.1	25.8493
1294.19	24.2071
1295.27	23.949
1296.35	25.8468
1297.44	27.8174
1298.52	22.2785
1299.61	22.7748
1300.69	24.2458
1301.78	22.991
1302.86	25.9773
1303.94	25.8498
1305.03	26.9281
1306.11	24.9206
1306.4	24
1307.49	26.5
1308.57	20
1309.66	26
1310.75	26.5
1311.84	24
1312.92	21
1314.01	24
1315.1	25.5
1316.19	24
1317.27	26
1318.36	22.5
1319.45	26
1320.53	24
1321.62	25.5
1322.7	22
1323.79	21.5
1324.88	26
1325.96	22.5
1327.05	24
1328.13	26.5
1329.21	21.5
1330.3	24
1331.38	21
1332.47	22.5
1333.55	25
1334.64	22
1335.72	25
1336.8	22.5
1337.89	25
1338.97	27
1340.05	22.5
1341.14	28
1342.22	29
1343.3	19
1344.39	27.5
1345.47	25
1346.55	26
1347.63	23
1348.71	24.5
1349.79	24.5
1350.88	21.5
1351.96	23.5
1353.04	25.5
1354.12	27
1355.2	24
1356.28	23.5
1357.36	26
1358.44	25.5
1359.52	27
1360.6	25
1361.68	25
1362.76	25
1363.84	22.5
1364.92	23
1366	28
1367.08	26.5
1368.16	21.5
1369.23	26
1370.31	22
1371.39	26
1372.47	23.5
1373.55	25
1374.62	25
1375.7	28
1376.78	27
1377.85	25.5
1378.93	23
1380.01	24.5
1381.09	25.5
1382.16	26
1383.24	25.5
1384.31	24.5
1385.39	24
1386.47	25
1387.54	24.5
1388.62	23.5
1389.69	27
1390.77	23.5
1391.84	27.5
1392.92	30
1393.99	25.5
1395.06	26
1396.14	23.5
1397.21	26
1398.29	25.5
1399.36	29
1400.43	28
1401.51	28
1402.58	31
1403.65	29.5
1404.73	35
1405.8	31
1406.87	26.5
1407.94	29.5
1409.02	28
1410.09	30
1411.16	28
1412.23	32.5
1413.3	29
1414.37	34.5
1415.45	27
1416.52	30
1417.59	28.5
1418.66	33
1419.73	23.5
1420.8	29
1421.87	30.5
1422.94	24
1424.01	27.5
1425.08	28
1426.15	27.5
1427.22	27.5
1428.29	25.5
1429.35	25.5
1430.42	28.5
1431.49	27
1432.56	25
1433.63	28.5
1434.7	22
1435.77	25.5
1436.83	27
1437.9	30
1438.97	25
1440.04	26
1441.1	27
1442.17	25.5
1443.24	26.5
1444.3	28
1445.37	26
1446.44	28
1447.5	24
1448.57	28
1449.63	24.5
1450.7	25.5
1451.76	28
1452.83	21.5
1453.89	25.5
1454.96	29
1456.02	23
1457.09	25
1458.15	30
1459.22	24.5
1460.28	26.5
1461.34	25.5
1462.41	28
1463.47	24
1464.54	22
1465.6	28
1466.66	24
1467.72	28
1468.79	22.5
1469.85	25.5
1470.91	24
1471.97	25.5
1473.04	25
1474.1	26.5
1475.16	22
1476.22	26
1477.28	25
1478.34	28
1479.4	27
1480.47	23
1481.53	26.5
1482.59	29.5
1483.65	26.5
1484.71	24.5
1485.77	25
1486.83	27.5
1487.89	28
1488.95	28
1490.01	24.5
1491.07	28
1492.12	25
1493.18	25
1494.24	27
1495.3	26.5
1496.36	26
1497.42	30.5
1498.47	27.5
1499.53	26
1500.59	24
1501.65	26.5
1502.7	20.5
1503.76	25
1504.82	28
1505.88	22
1506.93	27.5
1507.99	23
1509.05	27.5
1510.1	27
1511.16	27.5
1512.21	23
1513.27	21
1514.32	28.5
1515.38	26
1516.43	26
1517.49	21.5
1518.54	26
1519.6	23.5
1520.65	25.5
1521.71	19.5
1522.76	21.5
1523.82	25.5
1524.87	22.5
1525.92	25
1526.98	24
1528.03	29
1529.08	27
1530.14	27.5
1531.19	26.5
1532.24	28.5
1533.3	28
1534.35	21
1535.4	24
1536.45	31
1537.5	27.5
1538.56	26.5
1539.61	22
1540.66	26.5
1541.71	27.5
1542.76	25
1543.81	27.5
1544.86	24.5
1545.91	20
1546.96	25.5
1548.01	23.5
1549.06	26
1550.11	23.5
1551.16	23
1552.21	25
1553.26	24
1554.31	24
1555.36	26
1556.41	24.5
1557.46	27
1558.51	22
1559.55	27
1560.6	24
1561.65	27.5
1562.7	25
1563.75	28.5
1564.79	30
1565.84	24.5
1566.89	24
1567.94	30
1568.98	26
1570.03	23.5
1571.07	25
1572.12	25
1573.17	25
1574.21	22.5
1575.26	25
1576.31	22.5
1577.35	23.5
1578.4	25
1579.44	28.5
1580.49	28
1581.53	25
1582.58	27
1583.62	25
1584.67	20.5
1585.71	21
1586.75	29.5
1587.8	27.5
1588.84	25.5
1589.89	25.5
1590.93	24.5
1591.97	28.5
1593.02	24.5
1594.06	27
1595.1	25.5
1596.14	25
1597.19	27.5
1598.23	26.5
1599.27	25.5
1600.31	26
1601.35	26.5
1602.4	27.5
1603.44	25
1604.48	25
1605.52	28.5
1606.56	26
1607.6	24
1608.64	32
1609.68	30
1610.72	21.5
1611.76	23.5
1612.8	26.5
1613.84	27
1614.88	23.5
1615.92	26
1616.96	21
1618	24.5
1619.04	26
1620.08	25.5
1621.12	26.5
1622.16	31
1623.19	28.5
1624.23	23
1625.27	26
1626.31	26
1627.35	22.5
1628.38	21.5
1629.42	24
1630.46	28.5
1631.5	23.5
1632.53	28
1633.57	24
1634.61	27
1635.64	26.5
1636.68	25.5
1637.71	26
1638.75	29.5
1639.79	24
1640.82	27.5
1641.86	27.5
1642.89	21
1643.93	26.5
1644.96	25
1646	24.5
1647.03	24.5
1648.07	27
1649.1	24.5
1650.14	25
1651.17	25.5
1652.2	27
1653.24	25.5
1654.27	26
1655.3	26
1656.34	27
1657.37	24
1658.4	23.5
1659.44	25.5
1660.47	27.5
1661.5	26
1662.53	25
1663.57	29
1664.6	23.5
1665.63	31.5
1666.66	26
1667.69	23
1668.72	24.5
1669.75	25
1670.79	27
1671.82	27.5
1672.85	28.5
1673.88	29
1674.91	25
1675.94	27.5
1676.97	22.5
1678	28
1679.03	24
1680.06	25
1681.09	26
1682.11	25
1683.14	20
1684.17	26
1685.2	26
1686.23	22.5
1687.26	26.5
1688.29	27
1689.32	21.5
1690.34	24.5
1691.37	23
1692.4	24
1693.43	21
1694.45	24
1695.48	25.5
1696.51	28
1697.53	23.5
1698.56	24
1699.59	31
1700.61	21
1701.64	22.5
1702.66	24
1703.69	23
1704.72	26.5
1705.74	25.5
1706.77	24.5
1707.79	26
1708.82	25
1709.84	24
1710.87	23
1711.89	22
1712.92	29
1713.94	22
1714.96	25.5
1715.99	22
1717.01	28
1718.04	24.5
1719.06	27.5
1720.08	23.5
1721.11	24.5
1722.13	24
1723.15	25
1724.17	23
1725.2	23.5
1726.22	24.5
1727.24	27
1728.26	23.5
1729.28	24.5
1730.31	31
1731.33	28.5
1732.35	25.5
1733.37	25
1734.39	23.5
1735.41	19.5
1736.43	22
1737.45	23
1738.47	27.5
1739.49	20.5
1740.51	25.5
1741.53	22.5
1742.55	25
1743.57	22
1744.59	25.5
1745.61	27
1746.63	25.5
1747.65	24.5
1748.67	27
1749.69	29
1750.71	23
1751.72	21.5
1752.74	27.5
1753.76	23
1754.78	25
1755.8	26
1756.81	25.5
1757.83	26.5
1758.85	24
1759.86	22.5
1760.88	27
1761.9	23
1762.91	23
1763.93	27
1764.95	21.5
1765.96	24.5
1766.98	27.5
1768	23
1769.01	27.5
1770.03	26
1771.04	21.5
1772.06	22.5
1773.07	24
1774.09	24
1775.1	26
1776.12	23.5
1777.13	26
1778.14	22.5
1779.16	27
1780.17	28.5
1781.19	25.5
1782.2	25.5
1783.21	25.5
1784.23	22.5
1785.24	24
1786.25	25
1787.27	25
1788.28	24.5
1789.29	29
1790.3	25.5
1791.32	27
1792.33	24
1793.34	28.5
1794.35	25.5
1795.36	22
1796.37	22.5
1797.38	23.5
1798.4	21
1799.41	23
1800.42	23
1801.43	22.5
1802.44	27
1803.45	22
1804.46	26
1805.47	22.5
1806.48	24.5
1807.49	25.5
1808.5	28.5
1809.51	25.5
1810.52	26.5
1811.53	26.5
1812.53	24
1813.54	23
1814.55	27.5
1815.56	24
1816.57	25
1817.58	22.5
1818.58	23
1819.59	23.5
1820.6	25
1821.61	23
1822.61	25
1823.62	25.5
1824.63	23.5
1825.64	20
1826.64	28
1827.65	26.5
1828.66	24
1829.66	25.5
1830.67	25
1831.67	25
1832.68	27.5
1833.68	26
1834.69	27
1835.7	21.5
1836.7	29
1837.71	23
1838.71	30
1839.71	24.5
1840.72	23.5
1841.72	26
1842.73	21.5
1843.73	24.5
1844.74	26.5
1845.74	22.5
1846.74	23
1847.75	21
1848.75	24.5
1849.75	21
1850.76	24.5
1851.76	23
1852.76	26
1853.76	23
1854.77	27.5
1855.77	22.5
1856.77	24
1857.77	25
1858.77	26
1859.78	23.5
1860.78	24
1861.78	27.5
1862.78	22.5
1863.78	23
1864.78	27.5
1865.78	28
1866.78	29.5
1867.78	25.5
1868.78	29
1869.78	22
1870.78	26
1871.78	28
1872.78	25.5
1873.78	25
1874.78	27
1875.78	27.5
1876.78	26
1877.78	21.5
1878.78	22
1879.77	27
1880.77	23
1881.77	24
1882.77	27.5
1883.77	26
1884.76	22
1885.76	25
1886.76	25.5
1887.76	26
1888.75	24
1889.75	28.5
1890.75	23
1891.74	26
1892.74	25
1893.74	28
1894.73	25.5
1895.73	23
1896.72	23
1897.72	23
1898.72	24.5
1899.71	23.5
1900.71	24
1901.7	26
1902.7	22
1903.69	24
1904.69	24
1905.68	23
1906.67	27.5
1907.67	24
1908.66	28
1909.66	23.5
1910.65	27
1911.64	22
1912.64	24
1913.63	22
1914.62	25
1915.62	22
1916.61	28.5
1917.6	24
1918.59	27
1919.59	24.5
1920.58	27.5
1921.57	26.5
1922.56	21.5
1923.55	25
1924.55	27.5
1925.54	21
1926.53	25
1927.52	24.5
1928.51	28
1929.5	25.5
1930.49	26.5
1931.48	26
1932.47	23.5
1933.46	26
1934.45	25
1935.44	21
1936.43	26.5
1937.42	15
1938.41	25
1939.4	24.5
1940.39	28
1941.38	21
1942.37	23
1943.36	26
1944.34	21.5
1945.33	21.5
1946.32	20.5
1947.31	23
1948.3	23
1949.28	23
1950.27	23
1951.26	26
1952.25	24.5
1953.23	22
1954.22	21
1955.21	23.5
1956.2	22.5
1957.18	27
1958.17	29
1959.15	25
1960.14	26
1961.13	24
1962.11	21
1963.1	24
1964.08	22
1965.07	24
1966.05	22.5
1967.04	25.5
1968.02	26
1969.01	27.5
1969.99	25.5
1970.98	29
1971.96	23
1972.94	23
1973.93	19.5
1974.91	22
1975.9	26
1976.88	21
1977.86	23
1978.85	22
1979.83	24.5
1980.81	29
1981.8	24
1982.78	24.5
1983.76	21
1984.74	25
1985.72	24.5
1986.71	26
1987.69	24
1988.67	23
1989.65	26.5
1990.63	27
1991.61	24
1992.6	23.5
1993.58	23
1994.56	24.5
1995.54	21
1996.52	22
1997.5	22
1998.48	26.5
1999.46	29
2000.44	27.5
2001.42	23
2002.4	22
2003.38	23.5
2004.36	26
2005.34	24
2006.32	27
2007.29	25
2008.27	25.5
2009.25	23.5
2010.23	23
2011.21	22.5
2012.19	23
2013.16	25.5
2014.14	24.5
2015.12	23
2016.1	26
2017.07	22
2018.05	24.5
2019.03	23
2020	25
2020.98	22.5
2021.96	23.5
2022.93	26
2023.91	24
2024.89	22
2025.86	25
2026.84	25
2027.81	26
2028.79	28
2029.77	28
2030.74	21
2031.72	24.5
2032.69	23
2033.67	26
2034.64	21.5
2035.61	26
2036.59	26.5
2037.56	25
2038.54	24.5
2039.51	26
2040.48	30
2041.46	22
2042.43	23.5
2043.41	21.5
2044.38	27
2045.35	24
2046.32	21.5
2047.3	25
2048.27	22
2049.24	21.5
2050.21	23.5
2051.19	24.5
2052.16	25.5
2053.13	22.5
2054.1	25
2055.07	25
2056.04	22.5
2057.02	24.5
2057.99	20
2058.96	24
2059.93	21
2060.9	23
2061.87	26.5
2062.84	22
2063.81	23
2064.78	19
2065.75	25
2066.72	22
2067.69	26.5
2068.66	24.5
2069.63	22.5
2070.6	22.5
2071.57	21
2072.53	19
2073.5	27
2074.47	26
2075.44	22.5
2076.41	21
2077.38	24.5
2078.34	26
2079.31	24
2080.28	27.5
2081.25	24.5
2082.21	25.5
2083.18	20.5
2084.15	21
2085.12	23.5
2086.08	22
2087.05	21
2088.02	23
2088.98	16
2089.95	21
2090.91	26
2091.88	24
2092.85	24
2093.81	24
2094.78	24
2095.74	24.5
2096.71	21.5
2097.67	27
2098.64	25.5
2099.6	20.5
2100.57	25
2101.53	23.5
2102.5	19
2103.46	24.5
2104.42	24
2105.39	24.5
2106.35	20
2107.31	21.5
2108.28	24
2109.24	27
2110.2	24.5
2111.17	23
2112.13	24
2113.09	23.5
2114.06	18.5
2115.02	21.5
2115.98	27
2116.94	26
2117.9	22
2118.86	19
2119.83	24
2120.79	26.5
2121.75	25
2122.71	24
2123.67	24.5
2124.63	26.5
2125.59	22.5
2126.55	22.5
2127.51	26
2128.48	22
2129.43	22.5
2130.4	24
2131.35	22.5
2132.31	23.5
2133.27	23
2134.23	23
2135.19	23
2136.15	25
2137.11	20
2138.07	24
2139.03	21.5
2139.99	24.5
2140.95	23
2141.9	21
2142.86	24.9842
2143.82	23.9721
2144.78	25.0379
2145.74	22.1141
2146.69	22.5783
2147.65	23.4837
2148.61	23.5171
2149.56	20.9928
2150.52	22.8958
2151.48	23.7707
2152.44	21.1522
2153.39	22.9014
2154.35	23.6249
2155.3	26.3415
2156.26	23.0376
2157.22	24.2332
2158.17	23.4109
2159.13	26.3956
2160.08	21.8584
2161.04	25.7657
2161.99	21.6343
2162.95	21.4575
2163.9	24.4539
2164.86	22.693
2165.81	21.7114
2166.77	23.97
2167.72	21.7205
2168.68	21.0458
2169.63	23.687
2170.58	24.3511
2171.54	22.8993
2172.49	25.4969
2173.44	20.5788
2174.4	23.0907
2175.35	20.1063
2176.3	22.1576
2177.26	21.7502
2178.21	23.2068
2179.16	22.7056
2180.11	23.6165
2181.07	21.6282
2182.02	21.8028
2182.97	22.7002
2183.92	24.3311
2184.88	23.3167
2185.83	23.7163
2186.78	23.0161
2187.73	21.7683
2188.68	22.3505
2189.63	24.0717
2190.58	25.1599
2191.53	22.045
2192.48	23.0194
2193.43	23.7419
2194.38	21.7602
2195.33	21.5632
2196.28	22.3907
2197.23	24.2316
2198.18	20.0202
2199.13	20.8539
2200.08	23.8779
2201.03	22.8992
2201.98	25.1956
2202.93	21.2118
2203.88	22.3471
2204.83	19.4531
2205.78	23.949
2206.72	23.1914
2207.67	23.8188
2208.62	22.5517
2209.57	22.6488
2210.52	23.6328
2211.46	23.5338
2212.41	22.333
2213.36	22.1115
2214.31	22.3591
2215.25	21.2881
2216.2	20.6857
2217.15	23.5961
2218.09	20.0681
2219.04	21.1201
2219.99	22.95
2220.93	22.8574
2221.88	22.8591
2222.83	23.8971
2223.77	25.4653
2224.72	22.4304
2225.66	23.0308
2226.61	21.1646
2227.55	23.1707
2228.5	23.2507
2229.44	21.6767
2230.39	22.1733
2231.33	22.0249
2232.28	19.8236
2233.22	22.0659
2234.17	23.6725
2235.11	23.5641
2236.05	23.2816
2237	23.7318
2237.94	23.8665
2238.88	23.5837
2239.83	22.3448
2240.04	22
2240.98	26.5
2241.93	24.5
2242.88	24.5
2243.83	24.5
2244.78	23
2245.72	22
2246.67	25
2247.62	21
2248.56	22
2249.51	21.5
2250.46	23
2251.4	20
2252.35	22
2253.3	22
2254.24	24.5
2255.19	20.5
2256.14	20.5
2257.08	19
2258.03	22
2258.97	21.5
2259.92	26
2260.86	23
2261.81	22.5
2262.75	21
2263.7	21.5
2264.64	20
2265.59	21.5
2266.53	23
2267.48	23.5
2268.42	26
2269.36	24
2270.31	20
2271.25	24
2272.19	23.5
2273.14	25.5
2274.08	17
2275.02	23
2275.97	22
2276.91	21.5
2277.85	20
2278.8	20.5
2279.74	22
2280.68	19
2281.62	26
2282.56	24
2283.51	22
2284.45	26
2285.39	23
2286.33	25.5
2287.27	19
2288.21	23
2289.15	23
2290.09	23
2291.04	22.5
2291.98	24
2292.92	21
2293.86	27
2294.8	25
2295.74	23.5
2296.68	27.5
2297.62	25
2298.56	27.5
2299.5	24
2300.44	24.5
2301.37	23.5
2302.31	22
2303.25	23
2304.19	26.5
2305.13	25
2306.07	23.5
2307.01	24.5
2307.94	22
2308.88	21.5
2309.82	22
2310.76	26.5
2311.7	21
2312.63	21.5
2313.57	21.5
2314.51	26.5
2315.44	26.5
2316.38	22
2317.32	27.5
2318.26	24
2319.19	25.5
2320.13	23.5
2321.06	23
2322	20.5
2322.94	27
2323.87	23.5
2324.81	24
2325.74	23.5
2326.68	24.5
2327.61	22
2328.55	26.5
2329.48	22.5
2330.42	22.5
2331.35	25
2332.29	27.5
2333.22	23.5
2334.16	28
2335.09	21.5
2336.02	24
2336.96	22.5
2337.89	24
2338.83	21
2339.76	22.5
2340.69	23.5
2341.63	23
2342.56	23.5
2343.49	25
2344.42	28.5
2345.36	23
2346.29	24
2347.22	23
2348.15	23.5
2349.09	26
2350.02	26
2350.95	27
2351.88	20.5
2352.81	27
2353.74	23.5
2354.68	22
2355.61	24
2356.54	21
2357.47	24
2358.4	23.5
2359.33	23
2360.26	25.5
2361.19	24
2362.12	22
2363.05	20
2363.98	23
2364.91	20
2365.84	25.5
2366.77	22
2367.7	26.5
2368.63	24
2369.56	25.5
2370.49	24
2371.41	26.5
2372.34	25
2373.27	21.5
2374.2	27
2375.13	23
2376.06	22.5
2376.98	23
2377.91	23.5
2378.84	25
2379.77	26
2380.69	23.5
2381.62	24
2382.55	24
2383.47	24
2384.4	24.5
2385.33	24.5
2386.25	24
2387.18	23.5
2388.11	23.5
2389.03	19
2389.96	24.5
2390.89	24.5
2391.81	24
2392.74	19.5
2393.66	23
2394.59	25
2395.51	22
2396.44	24.5
2397.36	24
2398.29	22
2399.21	27
2400.14	25.5
2401.06	24.5
2401.99	25.5
2402.91	25
2403.83	26
2404.76	26
2405.68	22
2406.6	24.5
2407.53	23
2408.45	24.5
2409.37	25
2410.3	25
2411.22	23.5
2412.14	24
2413.06	25.5
2413.99	24.5
2414.91	22
2415.83	23
2416.75	19.5
2417.68	26.5
2418.6	24
2419.52	18.5
2420.44	23.5
2421.36	25
2422.28	24.5
2423.2	24
2424.12	26
2425.05	20.5
2425.97	23.5
2426.89	25.5
2427.81	27.5
2428.73	24.5
2429.65	23
2430.57	24
2431.49	24
2432.41	25.5
2433.33	25
2434.25	19
2435.17	23
2436.08	25.5
2437	23
2437.92	24
2438.84	27
2439.76	23
2440.68	26
2441.6	23
2442.51	22.5
2443.43	27.5
2444.35	25.5
2445.27	21.5
2446.19	24
2447.1	25
2448.02	25
2448.94	24
2449.85	24
2450.77	23.5
2451.69	25
2452.61	24.5
2453.52	24.5
2454.44	26
2455.35	26.5
2456.27	26
2457.19	26
2458.1	24.5
2459.02	24.5
2459.94	24
2460.85	22.5
2461.77	26
2462.68	22
2463.6	25
2464.51	26
2465.43	24.5
2466.34	24.5
2467.25	26
2468.17	30
2469.08	27.5
2470	20
2470.91	24
2471.83	22.5
2472.74	24
2473.65	24.5
2474.57	26
2475.48	24
2476.39	22.5
2477.31	24.5
2478.22	25
2479.13	25
2480.04	22.5
2480.96	24.5
2481.87	21.5
2482.78	26
2483.69	26
2484.6	25
2485.52	24
2486.43	26
2487.34	20.5
2488.25	25
2489.16	24.5
2490.07	20
2490.99	24.5
2491.9	24
2492.81	21
2493.72	27.5
2494.63	21.5
2495.54	28
2496.45	25
2497.36	24
2498.27	24
2499.18	26.5
2500.09	24
2501	25
2501.91	27
2502.82	23
2503.73	24
2504.63	25.5
2505.54	22
2506.45	22
2507.36	24
2508.27	23
2509.18	26.5
2510.09	24.5
2510.99	26
2511.9	26
2512.81	25.5
2513.72	26.5
2514.62	25.5
2515.53	27
2516.44	23.5
2517.35	24
2518.25	23
2519.16	19
2520.07	24
2520.97	23.5
2521.88	26.5
2522.79	21.5
2523.69	23.5
2524.6	24
2525.51	25
2526.41	24
2527.32	26
2528.22	25
2529.13	20.5
2530.03	25.5
2530.94	23.5
2531.84	23
2532.75	25
2533.65	26.5
2534.56	21
2535.46	23
2536.37	19
2537.27	28
2538.17	26
2539.08	26.5
2539.98	23
2540.89	27.5
2541.79	23.5
2542.69	26.5
2543.6	24.5
2544.5	22.5
2545.4	27.5
2546.31	26
2547.21	21.5
2548.11	24.5
2549.01	25
2549.92	25
2550.82	24
2551.72	24
2552.62	24
2553.52	25
2554.42	22.5
2555.33	24.5
2556.23	24.5
2557.13	24
2558.03	21
2558.93	27
2559.83	24
2560.73	27
2561.63	26.5
2562.53	26.5
2563.43	25.5
2564.33	24.5
2565.24	25
2566.13	23
2567.04	25.5
2567.93	22.5
2568.83	25
2569.73	23
2570.63	23.5
2571.53	25
2572.43	27
2573.33	28.5
2574.23	24.5
2575.13	22
2576.03	27
2576.92	23
2577.82	26.5
2578.72	21
2579.62	24
2580.52	27
2581.41	21
2582.31	26.5
2583.21	21
2584.11	26.5
2585	25
2585.9	24.5
2586.8	21
2587.69	24.5
2588.59	25
2589.49	25
2590.38	25
2591.28	24
2592.18	25.5
2593.07	23.5
2593.97	25.5
2594.86	26
2595.76	23
2596.66	19.5
2597.55	24.5
2598.45	24.5
2599.34	26
2600.24	25
2601.13	24
2602.03	26
2602.92	20.5
2603.81	22
2604.71	27.5
2605.6	28
2606.5	23.5
2607.39	22.5
2608.28	26.5
2609.18	28
2610.07	27
2610.97	25
2611.86	22.5
2612.75	25.5
2613.64	26
2614.54	25
2615.43	23
2616.32	26.5
2617.22	26
2618.11	24
2619	21.5
2619.89	26
2620.78	22
2621.68	24
2622.57	24
2623.46	24.5
2624.35	22
2625.24	24.5
2626.13	21.5
2627.02	21
2627.91	24.5
2628.81	22
2629.7	26.5
2630.59	25
2631.48	22
2632.37	25.5
2633.26	25.5
2634.15	23.5
2635.04	21
2635.93	29
2636.82	17
2637.71	23.5
2638.59	25
2639.48	22
2640.37	23
2641.26	26
2642.15	24
2643.04	25
2643.93	28
2644.82	26
2645.71	23
2646.59	25
2647.48	23.5
2648.37	24.5
2649.26	23.5
2650.15	26.5
2651.03	23
2651.92	23.5
2652.81	27.5
2653.69	24
2654.58	26
2655.47	28
2656.35	20
2657.24	24
2658.13	22.5
2659.01	21.5
2659.9	25.5
2660.79	18
2661.67	24
2662.56	22
2663.44	28
2664.33	21
2665.22	20.5
2666.1	23.5
2666.99	25.5
2667.87	23
2668.76	25
2669.64	23.5
2670.52	22
2671.41	25
2672.29	28.5
2673.18	25
2674.06	24
2674.95	27
2675.83	21
2676.71	24.5
2677.6	22
2678.48	25.5
2679.36	24.5
2680.25	22.5
2681.13	24.5
2682.01	22
2682.9	23.5
2683.78	24.5
2684.66	25
2685.55	23
2686.43	25.5
2687.31	22.5
2688.19	25
2689.07	22.5
2689.96	22.5
2690.84	24
2691.72	24
2692.6	21
2693.48	24
2694.36	28
2695.24	22
2696.12	21.5
2697	20
2697.89	25.5
2698.77	23.5
2699.65	24
2700.53	23.5
2701.41	25.5
2702.29	26
2703.17	27.5
2704.05	23
2704.93	25
2705.81	21.5
2706.69	24
2707.57	24.5
2708.44	23
2709.32	26
2710.2	19.5
2711.08	20.5
2711.96	22.5
2712.84	26
2713.72	23
2714.59	24.5
2715.47	22
2716.35	19
2717.23	23.5
2718.11	27
2718.98	28.5
2719.86	26
2720.74	22
2721.62	24
2722.49	22
2723.37	27.5
2724.25	25.5
2725.12	22
2726	22
2726.88	26
2727.75	22
2728.63	24.5
2729.51	26
2730.38	21
2731.26	20.5
2732.13	25
2733.01	27
2733.88	26
2734.76	23
2735.63	25.5
2736.51	23
2737.38	27
2738.26	25
2739.13	22
2740.01	28
2740.88	23
2741.76	23
2742.63	21.5
2743.5	27
2744.38	26.5
2745.25	24.5
2746.13	24.5
2747	25
2747.87	26
2748.75	24.5
2749.62	19
2750.49	27
2751.36	25.5
2752.24	21.5
2753.11	24.5
2753.98	21.5
2754.86	24.5
2755.73	23.5
2756.6	23.5
2757.47	26
2758.34	23
2759.22	25
2760.09	18
2760.96	23.5
2761.83	25.5
2762.7	25.5
2763.57	27.5
2764.44	23
2765.31	24.5
2766.18	28
2767.06	20.5
2767.93	23.5
2768.8	22.5
2769.67	25
2770.54	24
2771.41	27
2772.28	24.5
2773.15	27
2774.02	25.5
2774.89	24
2775.75	24
2776.62	22
2777.49	26.5
2778.36	26
2779.23	27
2780.1	24
2780.97	24.5
2781.84	24.5
2782.71	22
2783.57	24
2784.44	27.5
2785.31	25.5
2786.18	23.5
2787.04	26
2787.91	23.5
2788.78	23.5
2789.65	21.5
2790.51	27.5
2791.38	27
2792.25	28
2793.12	24
2793.98	24.5
2794.85	24.5
2795.72	26
2796.58	24
2797.45	28
2798.31	24.5
2799.18	25
2800.05	25
2800.91	25
2801.78	25
2802.64	30
2803.51	24.5
2804.37	23
2805.24	26.5
2806.1	27
2806.97	24
2807.83	28.5
2808.7	23
2809.56	27
2810.43	23.5
2811.29	23
2812.15	26.5
2813.02	23
2813.88	26
2814.75	20
2815.61	28.5
2816.47	23
2817.34	27.5
2818.2	24
2819.06	26.5
2819.92	24
2820.79	26.5
2821.65	24
2822.51	27.5
2823.37	26
2824.24	25
2825.1	24.5
2825.96	26.5
2826.82	24
2827.69	23
2828.55	25
2829.41	28
2830.27	19
2831.13	25.5
2831.99	24
2832.85	22.5
2833.71	26.5
2834.58	25.5
2835.44	25
2836.3	25
2837.16	22.5
2838.02	26.5
2838.88	26.5
2839.74	24
2840.6	24
2841.46	28
2842.32	23
2843.18	27
2844.04	27
2844.9	21
2845.75	24
2846.61	26
2847.47	21
2848.33	24
2849.19	23
2850.05	25
2850.91	25.5
2851.77	24
2852.62	23.5
2853.48	24.5
2854.34	23
2855.2	21
2856.06	24.5
2856.91	21
2857.77	27.5
2858.63	25
2859.48	24.5
2860.34	21
2861.2	29
2862.06	26.5
2862.91	30
2863.77	29
2864.63	24
2865.48	26
2866.34	27
2867.19	25.5
2868.05	26.5
2868.91	26
2869.76	27.5
2870.62	26
2871.47	26.5
2872.33	25.5
2873.18	26
2874.04	30
2874.89	27
2875.75	27.5
2876.6	30
2877.46	27.5
2878.31	31
2879.17	32
2880.02	28
2880.88	24.5
2881.73	31.5
2882.58	27
2883.44	24.5
2884.29	32
2885.14	30
2886	34.5
2886.85	33.5
2887.7	30
2888.56	32
2889.41	28.5
2890.26	32
2891.12	31
2891.97	36
2892.82	38
2893.67	36
2894.52	37
2895.38	41
2896.23	41
2897.08	43
2897.93	44.5
2898.78	48
2899.64	47
2900.49	52.5
2901.34	50
2902.19	53.5
2903.04	56
2903.89	59
2904.74	56
2905.59	61.5
2906.44	57
2907.29	55.5
2908.14	63.5
2908.99	67.5
2909.84	53
2910.69	53.5
2911.54	50
2912.39	49.5
2913.24	50
2914.09	47.5
2914.94	45
2915.79	42
2916.64	36
2917.49	38.5
2918.34	37.5
2919.18	36.5
2920.03	35.5
2920.88	37
2921.73	36.5
2922.58	31
2923.42	30
2924.27	28.5
2925.12	31
2925.97	29
2926.82	29
2927.66	29
2928.51	29
2929.36	29
2930.2	29
2931.05	28.5
2931.9	23
2932.74	29.5
2933.59	24
2934.44	24.5
2935.28	27
2936.13	30
2936.98	24.5
2937.82	27
2938.67	26.5
2939.51	25
2940.36	21
2941.2	25
2942.05	27
2942.9	27
2943.74	27.5
2944.58	27
2945.43	26
2946.27	22
2947.12	23.5
2947.96	31.5
2948.81	28.5
2949.65	30.5
2950.5	26
2951.34	34
2952.18	30
2953.03	26
2953.87	32
2954.71	28
2955.56	29
2956.4	28
2957.24	29
2958.09	29
2958.93	30.5
2959.77	35
2960.62	34.5
2961.46	35
2962.3	33
2963.14	38
2963.98	40.5
2964.83	45
2965.67	39
2966.51	38.5
2967.35	41
2968.19	35
2969.04	38
2969.88	37.5
2970.72	35
2971.56	35.9976
2972.4	31.9729
2973.24	34.8842
2974.08	29.1477
2974.92	29.1478
2975.76	31.0534
2976.6	33.9746
2977.44	31.451
2978.28	25.9363
2979.12	28.3698
2979.96	26.5282
2980.8	28.4751
2981.64	30.1159
2982.48	24.6746
2983.32	30.4212
2984.16	25.9703
2985	27.8019
2985.84	22.3275
2986.68	25.2694
2987.52	24.1973
2988.35	27.3755
2989.19	26.262
2990.03	26.1249
2990.87	27
2991.71	25.6528
2992.55	23.383
2993.38	24.7329
2994.22	23.5005
2995.06	24.0373
2995.9	22.4957
2996.73	25.7107
2997.57	25.8887
2998.41	23.2918
2999.25	21.8785
3000.08	21.5174
3000.92	23.8949
3001.76	22.3896
3002.59	25.7924
3003.43	24.792
3004.27	23.6667
3005.1	21.5138
3005.94	21.7394
3006.78	23.0523
3007.61	22.6747
3008.45	22.3031
3009.28	24.1386
3010.12	23.9611
3010.95	23.7731
3011.79	22.4356
3012.62	23.3017
3013.46	25.4903
3014.29	25.5514
3015.13	24.3822
3015.96	21.6623
3016.8	20.9303
3017.63	22.7508
3018.47	23.3853
3019.3	21.7053
3020.14	22.2713
3020.97	19.2858
3021.8	22.5356
3022.64	23.4854
3023.47	23.3662
3024.3	21.466
3025.14	22.9471
3025.97	20.9155
3026.8	22.3686
3027.64	23.0644
3028.47	24.8515
3029.3	24.1935
3030.14	24.3467
3030.97	22.2179
3031.8	20.9787
3032.63	22.9012
3033.46	22.8403
3034.3	22.4744
3035.13	21.6299
3035.96	21.7357
3036.79	23.0205
3037.62	23.6149
3038.46	21.5387
3039.29	21.2479
3040.12	21.5748
3040.95	20.3149
3041.78	21.5487
3042.61	24.1266
3043.44	23.5551
3044.27	21.5333
3045.1	22.3079
3045.93	23.7363
3046.76	24.7648
3047.59	23.1989
3048.42	21.9454
3049.25	22.5375
3050.08	21.7886
3050.91	22.7241
3051.74	21.7851
3052.57	23.9175
3053.4	24.9237
3054.23	22.2457
3055.06	22.4422
3055.89	23.8842
3056.72	21.8059
3057.32	20
3058.15	23
3058.98	24.5
3059.82	21
3060.65	27.5
3061.48	22.5
3062.31	19.5
3063.15	23
3063.98	26
3064.81	23
3065.64	20
3066.48	24
3067.31	24
3068.14	22.5
3068.97	22
3069.8	23.5
3070.63	22.5
3071.47	21.5
3072.3	24
3073.13	20.5
3073.96	20.5
3074.79	24
3075.62	22.5
3076.45	24
3077.28	22.5
3078.11	21.5
3078.94	27
3079.77	22.5
3080.6	22
3081.43	21.5
3082.26	26
3083.09	20.5
3083.92	21.5
3084.75	26.5
3085.58	25
3086.41	20
3087.24	21.5
3088.07	19
3088.9	23
3089.73	27.5
3090.55	24
3091.38	23.5
3092.21	24.5
3093.04	20.5
3093.87	22
3094.7	25.5
3095.52	24
3096.35	23.5
3097.18	25.5
3098.01	25
3098.84	25
3099.66	21.5
3100.49	23
3101.32	25.5
3102.14	28
3102.97	26
3103.8	19
3104.62	26.5
3105.45	20
3106.28	22
3107.1	20.5
3107.93	21
3108.76	26
3109.58	23
3110.41	24
3111.23	25
3112.06	21.5
3112.89	20.5
3113.71	22.5
3114.54	25
3115.36	22.5
3116.19	22
3117.01	23.5
3117.84	18
3118.66	25
3119.49	22.5
3120.31	25
3121.13	24.5
3121.96	25
3122.78	26.5
3123.61	23
3124.43	25
3125.25	24
3126.08	25
3126.9	22
3127.73	21
3128.55	25
3129.37	25
3130.19	24.5
3131.02	19
3131.84	23.5
3132.66	23.5
3133.49	24
3134.31	20
3135.13	24
3135.95	23.5
3136.78	26
3137.6	24
3138.42	22.5
3139.24	22.5
3140.06	25
3140.88	25
3141.71	24
3142.53	20
3143.35	21.5
3144.17	20
3144.99	19
3145.81	24
3146.63	28
3147.45	23
3148.27	28
3149.09	21.5
3149.91	24.5
3150.73	22
3151.56	25
3152.37	27
3153.2	23
3154.01	19
3154.83	22.5
3155.65	24.5
3156.47	22
3157.29	18
3158.11	22
3158.93	19
3159.75	22
3160.57	20
3161.39	25
3162.21	24
3163.02	28
3163.84	24
3164.66	24
3165.48	23.5
3166.3	23.5
3167.11	21
3167.93	22.5
3168.75	24
3169.57	23.5
3170.39	26
3171.2	22
3172.02	25
3172.84	24.5
3173.65	24.5
3174.47	26
3175.29	24
3176.1	23.5
3176.92	21
3177.74	21.5
3178.55	20.5
3179.37	15
3180.19	23.5
3181	27
3181.82	21.5
3182.63	25.5
3183.45	25
3184.27	24
3185.08	24
3185.9	25
3186.71	23
3187.53	23
3188.34	21
3189.16	19.5
3189.97	28.5
3190.79	25
3191.6	23
3192.41	25.5
3193.23	22.5
3194.04	19
3194.86	26.5
3195.67	24
3196.48	24
3197.3	21
3198.11	26
3198.93	23.5
3199.74	22
3200.55	25
3201.36	21
3202.18	21.5
3202.99	24
3203.8	21.5
3204.62	22
3205.43	24.5
3206.24	23
3207.05	23
3207.87	20.5
3208.68	25.5
3209.49	23.5
3210.3	22
3211.11	23.5
3211.93	24
3212.74	23.5
3213.55	23.5
3214.36	20.5
3215.17	19
3215.98	25
3216.79	26.5
3217.6	25
3218.41	23.5
3219.22	21
3220.03	24
3220.85	19
3221.66	21.5
3222.47	25
3223.28	25
3224.09	21
3224.9	21.5
3225.71	25.5
3226.52	21.5
3227.33	24
3228.13	24.5
3228.94	22.5
3229.75	22
3230.56	22.5
3231.37	28
3232.18	18
3232.99	25.5
3233.8	28
3234.61	24.5
3235.41	22
3236.22	22
3237.03	26.5
3237.84	24
3238.65	20
3239.45	24
3240.26	20
3241.07	26
3241.88	26
3242.68	24.5
3243.49	21.5
3244.3	22
3245.1	21
3245.91	23.5
3246.72	25
3247.53	24
3248.33	23.5
3249.14	26.5
3249.95	25.5
3250.75	23
3251.56	24
3252.36	23
3253.17	27
3253.97	25
3254.78	23.5
3255.59	22
3256.39	23
3257.2	22.5
3258	23
3258.81	24
3259.61	25
3260.42	22.5
3261.22	24
3262.03	26
3262.83	23
3263.64	25
3264.44	24
3265.24	25.5
3266.05	23.5
3266.85	22.5
3267.66	22.5
3268.46	20.5
3269.26	24
3270.07	25
3270.87	24
3271.67	24.5
3272.48	22
3273.28	26
3274.08	24
3274.89	24
3275.69	24.5
3276.49	27
3277.29	24.5
3278.1	24.5
3278.9	26.5
3279.7	22.5
3280.5	27
3281.3	24
3282.11	24.5
3282.91	21
3283.71	22.5
3284.51	23.5
3285.31	24.5
3286.11	22
3286.91	21
3287.72	21.5
3288.52	16.5
3289.32	25
3290.12	25
3290.92	20.5
3291.72	24.5
3292.52	24.5
3293.32	22
3294.12	24.5
3294.92	22.5
3295.72	21
3296.52	25.5
3297.32	23
3298.12	21
3298.92	24.5
3299.72	26
3300.52	22.5
3301.32	21
3302.12	21.5
3302.92	20
3303.71	25.5
3304.51	23
3305.31	25.5
3306.11	26.5
3306.91	24.5
3307.71	26.5
3308.5	21.5
3309.3	22.5
3310.1	22
3310.9	24
3311.7	20.5
3312.49	23.5
3313.29	25
3314.09	21.5
3314.89	25.5
3315.68	27.5
3316.48	24
3317.28	26
3318.07	25
3318.87	24
3319.67	24.5
3320.46	19
3321.26	24
3322.06	24.5
3322.85	23
3323.65	24
3324.44	24
3325.24	18.5
3326.04	21.5
3326.83	23.5
3327.63	23.5
3328.42	21.5
3329.22	26.5
3330.01	22
3330.81	27
3331.6	22
3332.4	26
3333.19	25.5
3333.99	23.5
3334.78	24
3335.58	23
3336.37	22
3337.17	23
3337.96	23.5
3338.75	24.5
3339.55	26
3340.34	23
3341.13	27.5
3341.93	22.5
3342.72	23.5
3343.51	23.5
3344.31	23.5
3345.1	29.5
3345.89	25
3346.69	26
3347.48	23.5
3348.27	24
3349.06	21.5
3349.86	26.5
3350.65	24
3351.44	24
3352.23	22.5
3353.03	21
3353.82	20.5
3354.61	23.5
3355.4	24.5
3356.19	22.5
3356.98	25.5
3357.78	28
3358.57	22.5
3359.36	22.5
3360.15	25
3360.94	22.5
3361.73	24.5
3362.52	20
3363.31	24
3364.1	21.5
3364.89	25.5
3365.68	21.5
3366.47	22
3367.26	19.5
3368.05	22.5
3368.84	23
3369.63	23
3370.42	22
3371.21	23.5
3372	20
3372.79	22.5
3373.58	27
3374.37	23
3375.16	23
3375.95	26
3376.73	25
3377.52	24
3378.31	22
3379.1	26.5
3379.89	27.5
3380.68	22.5
3381.46	21.5
3382.25	24
3383.04	24
3383.83	22.5
3384.62	24.5
3385.4	25
3386.19	19
3386.98	25
3387.76	23.5
3388.55	25
3389.34	25
3390.13	23
3390.91	27
3391.7	26.5
3392.49	26
3393.27	23
3394.06	22.5
3394.84	23.5
3395.63	25
3396.42	29
3397.2	24.5
3397.99	19
3398.77	24
3399.56	22
3400.34	28
3401.13	23
3401.92	24.5
3402.7	23
3403.49	23
3404.27	22
3405.06	25.5
3405.84	21.5
3406.62	23
3407.41	24.5
3408.19	22.5
3408.98	23
3409.76	23
3410.55	21.5
3411.33	22.5
3412.11	22.5
3412.9	25.5
3413.68	22
3414.46	26.5
3415.25	20
3416.03	20
3416.81	28.5
3417.6	22.5
3418.38	26.5
3419.16	23
3419.95	26
3420.73	21.5
3421.51	25.5
3422.29	23
3423.08	24
3423.86	21
3424.64	24
3425.42	22.5
3426.2	28
3426.98	24.5
3427.77	26.5
3428.55	21.5
3429.33	23
3430.11	22
3430.89	22.5
3431.67	25.5
3432.45	25.5
3433.24	28
3434.02	23.5
3434.8	23
3435.58	27
3436.36	23
3437.14	24
3437.92	23
3438.7	25
3439.48	21
3440.26	25
3441.04	22
3441.82	21
3442.6	20
3443.38	24
3444.16	28
3444.94	25.5
3445.71	24.5
3446.49	22.5
3447.27	25
3448.05	23
3448.83	23.5
3449.61	20
3450.39	23.5
3451.17	25.5
3451.94	23
3452.72	26
3453.5	24.5
3454.28	22.5
3455.06	23
3455.83	20
3456.61	23.5
3457.39	25.5
3458.17	28
3458.94	23
3459.72	22
3460.5	24
3461.28	22
3462.05	23
3462.83	27
3463.61	19
3464.38	24
3465.16	21
3465.93	24
3466.71	20
3467.49	22.5
3468.26	23
3469.04	23
3469.82	24.5
3470.59	22
3471.37	25
3472.14	25
3472.92	23.5
3473.69	20
3474.47	24
3475.24	23.5
3476.02	23
3476.79	24
3477.57	23.5
3478.34	27
3479.12	26
3479.89	25.5
3480.67	24
3481.44	27
3482.21	23.5
3482.99	22
3483.76	24.5
3484.54	23.5
3485.31	24
3486.08	26
3486.86	19.5
3487.63	20.5
3488.4	22.5
3489.18	23
3489.95	23
3490.72	25.5
3491.5	26.5
3492.27	24
3493.04	24
3493.81	23
3494.59	26
3495.36	21
3496.13	22
3496.9	21.5
3497.67	24
3498.45	25
3499.22	26
3499.99	25
