#Acq. time (s)=	5
#Accumulations=	5
#Range (cm-¹)=	100...3500
#Windows=	4
#Autofocus=	Off
#AutoExposure=	Off
#Spike filter=	Multiple accum.
#Delay time (s)=	0
#Binning=	1
#Readout mode=	Signal
#DeNoise=	Off
#ICS correction=	Off
#Dark correction=	Off
#Inst. Process=	Off
#Instrument=	LabRAM HR Evol
#Detector=	Syncerity OE
#Objective=	x100_VIS
#Grating=	600 (500nm)
#ND Filter=	25%
#Laser=	633nm_Edge
#Hole=	100.021
#Range=	Visible
#Project=	verificaciones
#Sample=	a4
#Site=	lined
#Title=	bolusa4lined
#Remark=	
#Date=	09.01.2026 15:34
#Acquired=	09.01.2026 15:34:27
100.695	84
101.978	90.5
103.262	89
104.545	89.5
105.829	86
107.112	88
108.394	81.5
109.676	89.5
110.958	86
112.24	87
113.522	92
114.803	87.5
116.084	90
117.365	96.5
118.646	96.5
119.927	99.5
121.207	94.5
122.487	100
123.767	108
125.047	107
126.326	103
127.606	110
128.885	115.5
130.164	124
131.442	123
132.721	118
133.999	122.5
135.277	134.5
136.555	130
137.831	130.5
139.109	136
140.386	138.5
141.663	142.5
142.94	144
144.216	149
145.493	158
146.769	151
148.043	157.5
149.319	166.5
150.595	164
151.87	174.5
153.145	176
154.42	180.5
155.693	177.5
156.968	178.5
158.242	176.5
159.516	181
160.79	176
162.062	174.5
163.336	174.5
164.609	174.5
165.882	168
167.153	167
168.426	164
169.699	162.5
170.971	160
172.241	161.5
173.513	161.5
174.785	166
176.055	165.5
177.326	162
178.597	165.5
179.866	169
181.137	173
182.407	165.5
183.676	174
184.946	173.5
186.216	177
187.484	178
188.753	180.5
190.022	183.5
191.29	178.5
192.558	175.5
193.825	166.5
195.094	169
196.36	167.5
197.628	164.5
198.896	160
200.162	154
201.429	155.5
202.695	146
203.962	149.5
205.227	141.5
206.493	132.5
207.758	138.5
209.024	133
210.289	131
211.554	128.5
212.818	128
214.083	125.5
215.347	122
216.612	112
217.875	115
219.138	110.5
220.402	113.5
221.665	107.5
222.928	108
224.19	104.5
225.454	106.5
226.715	103
227.977	104.5
229.24	101
230.501	95
231.762	100
233.024	94
234.284	83
235.546	91
236.806	88
238.066	89
239.327	92.5
240.587	87
241.846	90.5
243.105	85
244.365	86
245.624	87
246.882	83.5
248.142	86.5
249.4	79
250.658	79.5
251.916	84
253.174	82
254.432	83.5
255.689	81.5
256.945	82
258.202	85.5
259.46	79.5
260.716	81
261.972	82.5
263.228	83
264.483	78
265.74	75
266.996	81
268.251	78
269.505	75.5
270.76	77
272.014	74
273.268	74
274.522	71.5
275.778	67.5
277.031	69
278.285	70
279.538	69
280.791	78.5
282.043	69.5
283.296	75
284.548	72.5
285.8	72.5
287.052	69
288.304	67.5
289.556	73
290.807	74
292.058	73
293.309	73
294.56	72.5
295.81	71
297.061	76
298.311	71.5
299.561	76
300.81	76
302.06	72
303.309	71
304.558	70
305.807	69.5
307.056	76.5
308.305	73.5
309.551	71.5
310.8	69
312.047	71.5
313.295	76.5
314.543	70.5
315.79	70
317.037	71
318.284	74
319.529	71
320.776	70.5
322.022	69.5
323.268	71
324.514	67
325.758	72.5
327.004	67
328.249	73.5
329.494	71
330.739	67.5
331.982	70
333.227	69.5
334.471	68.5
335.715	74
336.958	72
338.201	71.5
339.445	76.5
340.687	72.5
341.93	73.5
343.173	70
344.414	77.5
345.657	69.5
346.899	72.5
348.14	72.5
349.381	75.5
350.623	73
351.863	73.5
353.104	72
354.346	70.5
355.585	65.5
356.826	67.5
358.065	66
359.305	72
360.545	73
361.784	74.5
363.023	72
364.261	71
365.501	71
366.738	67
367.977	71
369.216	63.5
370.453	68
371.691	71.5
372.928	70.5
374.166	62
375.402	71
376.64	60.5
377.876	68
379.111	67.5
380.348	66
381.584	73
382.82	68.5
384.055	69.5
385.291	72.5
386.526	67.5
387.76	69
388.996	68
390.229	68.5
391.465	66
392.698	65.5
393.931	66.5
395.166	65
396.399	67
397.632	65
398.866	65
400.098	65
401.33	68
402.563	69
403.795	67
405.027	66
406.259	66
407.491	62
408.721	63
409.954	69
411.184	69.5
412.415	66
413.645	69
414.876	63.5
416.106	67.5
417.335	66
418.565	63
419.794	63
421.024	58
422.253	63.5
423.482	60.5
424.71	66
425.938	64.5
427.168	62
428.396	63
429.623	73
430.851	69
432.078	62.5
433.305	56.5
434.532	62
435.758	67
436.986	63.5
438.212	63.5
439.438	71.5
440.664	64
441.89	71
443.115	63.5
444.34	70
445.566	66
446.79	74
448.015	73.5
449.24	78.5
450.464	73
451.688	71.5
452.912	81.5
454.135	77.5
455.359	81
456.582	75.5
457.805	76.5
459.028	75.5
460.251	86.5
461.473	82.5
462.696	88
463.918	90.5
465.14	92.5
466.36	94
467.582	101
468.803	108
470.024	109.5
471.245	116.5
472.466	124.5
473.686	143.5
474.907	153
476.126	163.5
477.346	183.5
478.565	206
479.785	221
481.004	248
482.224	261.5
483.441	292.5
484.66	315.5
485.879	323.5
487.097	334.5
488.314	348
489.532	345
490.75	341
491.967	310
493.184	315
494.401	303
495.618	279
496.835	252
498.05	250.5
499.267	242.5
500.483	217.5
501.698	206
502.913	181
504.129	176
505.343	169
506.559	154.5
507.774	149.5
508.987	138
510.202	133
511.415	128.5
512.63	128
513.844	123.5
515.056	107.5
516.27	116.5
517.482	102
518.696	102.5
519.907	95.5
521.121	104
522.332	91.5
523.545	94
524.757	92.5
525.968	82.5
527.18	87.5
528.39	77.5
529.602	85
530.812	83.5
532.023	82
533.233	80.5
534.443	79.5
535.653	78.5
536.862	76.5
538.073	81.5
539.281	68
540.491	73
541.7	76.5
542.908	79.5
544.117	74
545.325	67.5
546.534	74.5
547.741	72
548.949	70.5
550.157	72.5
551.364	73
552.57	72
553.778	70
554.985	65.5
556.191	66
557.398	65
558.604	65.5
559.809	73
561.014	70
562.221	64
563.426	64.5
564.63	65.5
565.835	61.5
567.041	66
568.245	68.5
569.449	68
570.653	63.5
571.856	57.5
573.061	62
574.264	62.5
575.467	67
576.67	66.5
577.873	66
579.076	61
580.279	62.5
581.481	63.5
582.683	62
583.884	58
585.086	58.5
586.287	66
587.488	60.5
588.689	68
589.891	62
591.092	61
592.292	60.5
593.492	67.5
594.692	61
595.892	57.5
597.092	64
598.291	64.5
599.49	64.5
600.689	58
601.888	66.5
603.087	65
604.285	65
605.483	58.5
606.681	65
607.879	64.5
609.077	61.5
610.274	64.5
611.472	65
612.668	61
613.865	68.5
615.061	65.5
616.258	65
617.454	68.5
618.65	60.5
619.846	66
621.042	67
622.238	68
623.432	69
624.627	63.5
625.822	63.5
627.017	66
628.212	64.5
629.406	69.5
630.599	62
631.793	65
632.987	67
634.181	59
635.373	67
636.566	67
637.76	67
638.953	66.5
640.144	64
641.337	61
642.529	68.5
643.721	67
644.912	67
646.104	74
647.295	67
648.485	71.5
649.677	62
650.868	65
652.057	69
653.248	65.5
654.437	65
655.628	71.5
656.818	71
658.006	66.5
659.196	73.5
660.384	73.5
661.574	72.5
662.763	68.5
663.951	68
665.14	71
666.327	70.5
667.515	76.5
668.702	74
669.891	73
671.077	77
672.265	79
673.451	79.5
674.638	84.5
675.824	88.5
677.011	91.5
678.197	95.5
679.383	95
680.568	105
681.755	111.5
682.939	113
684.124	121
685.309	125
686.494	117.5
687.679	122
688.863	114
690.046	121.5
691.231	112
692.414	115.5
693.599	118.5
694.781	115.5
695.964	124
697.148	123
698.33	132.5
699.512	134
700.694	140
701.877	156
703.059	173.5
704.24	178
705.423	205
706.604	218
707.784	262
708.965	255
710.147	251
711.327	237
712.507	216
713.687	165.5
714.867	147.5
716.048	134.5
717.227	112
718.406	92
719.585	92
720.764	87
721.942	84.5
723.122	77
724.3	77
725.478	80
726.656	69.5
727.834	70
729.011	67
730.189	65
731.366	68.5
732.543	66
733.719	65
734.896	70.5
736.072	66
737.249	66
738.426	65.5
739.602	66.5
740.777	60
741.953	53
743.128	67
744.303	60.5
745.477	65
746.651	63.5
747.826	65
749	63
750.174	58.5
751.348	66
752.522	60.5
753.696	70.5
754.869	58
756.043	61
757.216	59
758.389	63
759.561	63
760.732	66
761.905	59.5
763.077	64.5
764.249	60.5
765.421	62.5
766.592	58.5
767.762	60
768.934	60
770.105	60
771.275	62.5
772.446	55.5
773.615	61
774.786	66
775.956	65
777.126	70.5
778.294	66
779.464	74
780.633	74
781.801	81.5
782.97	81
784.139	87
785.306	89
786.475	86.5
787.643	95
788.81	84
789.978	92.5
791.146	85.5
792.312	83
793.479	91
794.647	83
795.812	81.5
796.979	80
798.144	76
799.311	77
800.477	73
801.642	75
802.808	73.5
803.972	70.5
805.138	72
806.302	66
807.467	68.5
808.631	66
809.796	67
810.959	64.5
812.124	66
813.287	71
814.451	62
815.614	60.5
816.777	61
817.94	65
819.102	60.5
820.265	64.5
821.427	60.5
822.59	61
823.751	59
824.912	59.5
826.074	57
827.235	60
828.397	56
829.558	61
830.718	63
831.879	62.5
833.039	60
834.199	58.5
835.359	61.5
836.519	61
837.679	61
838.838	57
839.998	61.5
841.156	61.5
842.315	65
843.473	57.5
844.633	59.5
845.791	67
846.948	59
848.106	62.5
849.263	64
850.422	58
851.579	65
852.736	67
853.892	66.5
855.049	74
856.205	69
857.363	71
858.519	70.5
859.674	74.5
860.83	79.5
861.986	72
863.141	76
864.296	75.5
865.451	72.5
866.605	73
867.76	72
868.914	69
870.069	62
871.224	67.5
872.378	64.5
873.531	65
874.685	59
875.838	70
876.991	67.5
878.144	66
879.296	56.5
880.448	63.5
881.6	66
882.753	71
883.905	57
885.057	60.5
886.208	61.5
887.36	59.5
888.511	60
889.662	62.5
890.813	61.5
891.964	60
893.113	48
894.264	58
895.414	46
896.564	58.5
897.714	56
898.864	55.5
900.012	56.5
901.161	55.5
902.31	57
903.459	52
904.607	57
905.756	53.5
906.904	59.5
908.052	52
909.199	51
910.347	47
911.495	57.5
912.643	51.5
913.789	61
914.936	49
916.083	52
917.229	51
918.375	53
919.522	53.5
920.667	55
921.813	56.5
922.959	56
924.104	51.5
925.249	53.5
926.393	52
927.539	55
928.684	49.5
929.827	47
930.972	53
932.115	50.5
933.26	56
934.403	54.5
935.547	56
936.689	51
937.833	50.5
938.975	52
940.119	49
941.26	54.5
942.404	56.5
943.545	56.5
944.688	54.5
945.829	55
946.971	49.5
948.112	50.5
949.253	54
950.394	46.5
951.535	50
952.676	51
953.816	54
954.956	54.5
956.097	55
957.236	52.5
958.377	52
959.516	53.5
960.655	51
961.793	49.5
962.933	60
964.071	51
965.21	53
966.349	54
967.487	52.5
968.624	50.5
969.762	52.5
970.901	54.75
972.038	49
973.175	55
974.311	56.5
975.449	58.5
976.586	49
977.722	52.5
978.858	43.5
979.994	55.5
981.131	48.5
982.267	51.5
983.402	54.5
984.537	51.5
985.672	49.5
986.807	54
987.942	54.5
989.076	51.5
990.211	53.5
991.346	55
992.48	53
993.614	52
994.748	54
995.881	55
997.014	52.5
998.148	49
999.28	49
1000.41	50
1001.55	51.5
1002.68	51
1003.81	55.5
1004.94	45.5
1006.07	55
1007.21	54
1008.34	51
1009.47	52
1010.6	48
1011.73	53
1012.86	51
1013.99	54
1015.12	55.5
1016.25	60.5
1017.38	54.5
1018.51	55
1019.64	55
1020.77	57
1021.9	52.5
1023.03	51
1024.16	55.5
1025.29	54
1026.42	49
1027.54	46
1028.67	52.5
1029.8	52.5
1030.93	51
1032.06	54
1033.18	53
1034.31	54
1035.44	50.5
1036.56	51
1037.69	54.5
1038.82	50
1039.94	52
1041.07	49
1042.2	52.5
1043.32	53.5
1044.45	49
1045.57	50
1046.7	52.5
1047.82	56
1048.95	55.5
1050.07	58
1051.2	50.5
1052.32	53.5
1053.45	55
1054.57	54.5
1055.69	54
1056.82	55.5
1057.94	54.5
1059.06	55
1060.19	52
1061.31	53.5
1062.43	49.5
1063.55	54.5
1064.68	57.5
1065.8	49.5
1066.92	52
1068.04	48.5
1069.16	56
1070.28	51
1071.41	53
1072.53	53
1073.65	56.5
1074.77	52.5
1075.89	53.5
1077.01	53
1078.13	58
1079.25	59
1080.37	52
1081.49	50.5
1082.61	50.5
1083.73	53
1084.85	56.5
1085.96	52
1087.08	50
1088.2	50
1089.32	58
1090.44	57.5
1091.56	52.5
1092.67	56.5
1093.79	51
1094.91	51
1096.03	50.5
1097.14	46.5
1098.26	51
1099.38	45.5
1100.49	52
1101.61	48.5
1102.73	54
1103.84	55
1104.96	54
1106.07	53
1107.19	51.5
1108.3	46.5
1109.42	52.5
1110.53	47
1111.65	55
1112.76	50
1113.88	52.5
1114.99	52.5
1116.1	51
1117.22	49.5
1118.33	51.5
1119.44	55.5
1120.56	50
1121.67	51.5
1122.78	50
1123.9	53.5
1125.01	49
1126.12	48
1127.23	50
1128.34	43
1129.46	54
1130.57	49.5
1131.68	53
1132.79	51
1133.9	53.5
1135.01	49
1136.12	51
1137.23	51
1138.34	50
1139.45	49.5
1140.56	51.5
1141.67	49
1142.78	52.5
1143.89	48.5
1145	49.5
1146.11	51
1147.22	48
1148.33	48
1149.44	53
1150.54	50
1151.65	51
1152.76	48
1153.87	51.5
1154.97	50
1156.08	47
1157.19	50
1158.3	49
1159.4	54
1160.51	50.5
1161.62	53
1162.72	50
1163.83	53
1164.93	54
1166.04	46
1167.15	49.5
1168.25	53
1169.36	51.5
1170.46	51
1171.57	51
1172.67	45.5
1173.78	45
1174.88	49
1175.98	53.5
1177.09	54.5
1178.19	53
1179.3	47.5
1180.4	45
1181.5	52
1182.61	56.5
1183.71	52
1184.81	56.5
1185.91	57
1187.02	49
1188.12	49
1189.22	51
1190.32	53
1191.42	50
1192.53	45
1193.63	47.5
1194.73	52.4905
1195.83	52.4523
1196.93	49.5041
1198.03	49.5176
1199.13	49.7298
1200.23	49.5564
1201.33	50.6789
1202.43	47.6384
1203.53	50.4237
1204.63	51.572
1205.73	49.3933
1206.83	49.5658
1207.93	50.521
1209.02	52.3028
1210.12	48.0819
1211.22	48.9641
1212.32	46.3392
1213.42	51.3604
1214.52	49.1056
1215.61	53.9638
1216.71	48.5968
1217.81	49.9455
1218.91	52.7575
1220	53.2015
1221.1	47.8737
1222.2	49.9943
1223.29	47.8438
1224.39	51.4968
1225.49	49.9235
1226.58	52.545
1227.68	49.8629
1228.77	49.2107
1229.87	51.4019
1230.96	47.6068
1232.06	48.0322
1233.15	50.0079
1234.25	48.1662
1235.34	49.0175
1236.44	51.4754
1237.53	51.9086
1238.63	53.3779
1239.72	50.9584
1240.81	54.1687
1241.91	53.5839
1243	50.5809
1244.09	51.4899
1245.19	49.2035
1246.28	51.9989
1247.37	54.6755
1248.46	51.4468
1249.56	56.9695
1250.65	54.0177
1251.74	56.9955
1252.83	59.7015
1253.92	58.0264
1255.01	62.9331
1256.11	63.0004
1257.2	65.3495
1258.29	63.7827
1259.38	64.5822
1260.47	64.5295
1261.56	69.3656
1262.65	69.4911
1263.74	68.5304
1264.83	68.073
1265.92	63.9929
1267.01	63.0232
1268.1	56.7681
1269.19	58.1463
1270.27	56.0186
1271.36	57.891
1272.45	55.1262
1273.54	51.1264
1274.63	52.3107
1275.72	52.2295
1276.8	52.2358
1277.89	52.0381
1278.98	53.7639
1280.07	55.3502
1281.15	53.3369
1282.24	51.195
1283.33	47.2008
1284.41	50.2346
1285.5	50.2756
1286.59	52.5228
1287.67	53.5656
1288.76	48.205
1289.84	49.3943
1290.93	52.8552
1292.01	47.5031
1293.1	50.0848
1294.19	52.1452
1295.27	48.7144
1296.35	52.5236
1297.44	54.1736
1298.52	53.1352
1299.61	49.5878
1300.69	45.0769
1301.78	48.9972
1302.86	50.1212
1303.94	49.9757
1305.03	52.9072
1306.11	52.5226
1306.4	52
1307.49	49
1308.57	53
1309.66	50.5
1310.75	50
1311.84	48.5
1312.92	53.5
1314.01	54
1315.1	53
1316.19	46
1317.27	51
1318.36	48.5
1319.45	50.5
1320.53	51.5
1321.62	48
1322.7	53
1323.79	52
1324.88	50
1325.96	52
1327.05	45
1328.13	45
1329.21	48
1330.3	49
1331.38	46.5
1332.47	49
1333.55	50.5
1334.64	49
1335.72	53
1336.8	50
1337.89	54.5
1338.97	51
1340.05	50
1341.14	45.5
1342.22	49
1343.3	50
1344.39	49
1345.47	55
1346.55	47.5
1347.63	49.5
1348.71	53
1349.79	46.5
1350.88	47
1351.96	50
1353.04	50.5
1354.12	53
1355.2	55
1356.28	47
1357.36	52.5
1358.44	52.5
1359.52	54.5
1360.6	50.5
1361.68	52
1362.76	48.5
1363.84	55.5
1364.92	50
1366	50.5
1367.08	46
1368.16	55.5
1369.23	54
1370.31	49
1371.39	51
1372.47	53.5
1373.55	55.5
1374.62	53.5
1375.7	55
1376.78	53
1377.85	50.5
1378.93	51
1380.01	56.5
1381.09	54
1382.16	58.5
1383.24	56
1384.31	57
1385.39	56
1386.47	58
1387.54	58.5
1388.62	58
1389.69	59
1390.77	63
1391.84	59.5
1392.92	60
1393.99	63.5
1395.06	72
1396.14	73.5
1397.21	75
1398.29	74
1399.36	76.5
1400.43	80
1401.51	80.5
1402.58	88
1403.65	89
1404.73	94.5
1405.8	91.5
1406.87	96.5
1407.94	102.5
1409.02	100
1410.09	101
1411.16	94.5
1412.23	97
1413.3	97.5
1414.37	95
1415.45	91.5
1416.52	94.5
1417.59	90.5
1418.66	83
1419.73	81
1420.8	80.5
1421.87	72.5
1422.94	74
1424.01	66
1425.08	67.5
1426.15	66
1427.22	68
1428.29	64.5
1429.35	59
1430.42	65.5
1431.49	61
1432.56	61
1433.63	59
1434.7	58.5
1435.77	63
1436.83	56
1437.9	56.5
1438.97	52.5
1440.04	57.5
1441.1	58.5
1442.17	63
1443.24	55
1444.3	58.5
1445.37	62.5
1446.44	57
1447.5	55.5
1448.57	57.5
1449.63	59
1450.7	53.5
1451.76	58
1452.83	56
1453.89	52
1454.96	55
1456.02	52
1457.09	59
1458.15	59
1459.22	53.5
1460.28	59
1461.34	55.5
1462.41	51.5
1463.47	54
1464.54	55.5
1465.6	50.5
1466.66	50
1467.72	50
1468.79	48
1469.85	53.5
1470.91	57
1471.97	60
1473.04	52
1474.1	54.5
1475.16	56
1476.22	56.5
1477.28	52.5
1478.34	53.5
1479.4	52
1480.47	54
1481.53	53
1482.59	58
1483.65	58.5
1484.71	52
1485.77	57
1486.83	54.5
1487.89	59
1488.95	57.5
1490.01	62
1491.07	55.5
1492.12	54.5
1493.18	54
1494.24	57
1495.3	49.5
1496.36	54.5
1497.42	51
1498.47	52.5
1499.53	58.5
1500.59	51
1501.65	52
1502.7	55
1503.76	48.5
1504.82	55.5
1505.88	51.5
1506.93	54
1507.99	54.5
1509.05	55.5
1510.1	50
1511.16	51.5
1512.21	53.5
1513.27	51
1514.32	55.5
1515.38	50
1516.43	49.5
1517.49	51.5
1518.54	56
1519.6	53
1520.65	53
1521.71	53.5
1522.76	53
1523.82	49
1524.87	52
1525.92	53.5
1526.98	52
1528.03	54
1529.08	52.5
1530.14	48.5
1531.19	57.5
1532.24	53.5
1533.3	49
1534.35	50.5
1535.4	51
1536.45	54
1537.5	54
1538.56	46.5
1539.61	52
1540.66	49
1541.71	50.5
1542.76	53
1543.81	53
1544.86	50
1545.91	54.5
1546.96	54.5
1548.01	52.5
1549.06	57.5
1550.11	49.5
1551.16	49
1552.21	53
1553.26	55.5
1554.31	54
1555.36	49
1556.41	52
1557.46	53
1558.51	53.5
1559.55	54
1560.6	50
1561.65	50.5
1562.7	52
1563.75	46.5
1564.79	46
1565.84	49
1566.89	45
1567.94	51.5
1568.98	52
1570.03	56.5
1571.07	50.5
1572.12	47
1573.17	48.5
1574.21	42
1575.26	51
1576.31	47
1577.35	51
1578.4	51
1579.44	52.5
1580.49	50.5
1581.53	53.5
1582.58	52
1583.62	47.5
1584.67	42
1585.71	44.5
1586.75	50.5
1587.8	50
1588.84	48
1589.89	46
1590.93	45.5
1591.97	47.5
1593.02	48
1594.06	45.5
1595.1	44.5
1596.14	48.5
1597.19	46.5
1598.23	49.5
1599.27	45
1600.31	48
1601.35	52
1602.4	55.5
1603.44	52
1604.48	47
1605.52	53.5
1606.56	47.5
1607.6	48.5
1608.64	47
1609.68	51
1610.72	49
1611.76	46
1612.8	47.5
1613.84	52
1614.88	47.5
1615.92	42.5
1616.96	52
1618	52.5
1619.04	44.5
1620.08	51.5
1621.12	48
1622.16	49
1623.19	49
1624.23	51
1625.27	47
1626.31	48
1627.35	50
1628.38	50.5
1629.42	46
1630.46	51
1631.5	44
1632.53	50.5
1633.57	46.5
1634.61	44.5
1635.64	50
1636.68	54
1637.71	50
1638.75	49
1639.79	44
1640.82	45
1641.86	45
1642.89	50
1643.93	48
1644.96	45
1646	53.5
1647.03	40
1648.07	48
1649.1	53.5
1650.14	45
1651.17	52
1652.2	45.5
1653.24	46.5
1654.27	43.5
1655.3	50.5
1656.34	43
1657.37	46
1658.4	49.5
1659.44	46.5
1660.47	49.5
1661.5	50
1662.53	44
1663.57	43
1664.6	44
1665.63	50.5
1666.66	52.5
1667.69	44
1668.72	44
1669.75	49.5
1670.79	46.5
1671.82	47
1672.85	46.5
1673.88	44
1674.91	44
1675.94	49
1676.97	46.5
1678	51.5
1679.03	43.5
1680.06	47
1681.09	47.5
1682.11	46.5
1683.14	46
1684.17	47.5
1685.2	48.5
1686.23	44.5
1687.26	46.5
1688.29	48.5
1689.32	46.5
1690.34	47
1691.37	43
1692.4	41.5
1693.43	45.5
1694.45	46.5
1695.48	45
1696.51	50.5
1697.53	44
1698.56	45.5
1699.59	47.5
1700.61	45
1701.64	43
1702.66	53.5
1703.69	42.5
1704.72	45.5
1705.74	43
1706.77	48
1707.79	44
1708.82	48
1709.84	43
1710.87	41
1711.89	45
1712.92	47
1713.94	48.5
1714.96	49
1715.99	43
1717.01	42.5
1718.04	50.5
1719.06	43
1720.08	43
1721.11	46
1722.13	49
1723.15	53.5
1724.17	43
1725.2	46
1726.22	44.5
1727.24	50
1728.26	48
1729.28	40
1730.31	44.5
1731.33	43.5
1732.35	45
1733.37	44.5
1734.39	42.5
1735.41	47
1736.43	49
1737.45	44
1738.47	40
1739.49	44
1740.51	46
1741.53	45
1742.55	46
1743.57	46
1744.59	45.5
1745.61	47
1746.63	41.5
1747.65	39
1748.67	47
1749.69	48
1750.71	42.5
1751.72	42
1752.74	46
1753.76	50
1754.78	44.5
1755.8	44.5
1756.81	47.5
1757.83	44
1758.85	45
1759.86	43.5
1760.88	46.5
1761.9	45
1762.91	39
1763.93	37.5
1764.95	45
1765.96	41.5
1766.98	51
1768	41.5
1769.01	41.5
1770.03	41.5
1771.04	44.5
1772.06	44.5
1773.07	44.5
1774.09	44
1775.1	43
1776.12	45.5
1777.13	44
1778.14	45
1779.16	46
1780.17	44
1781.19	48.5
1782.2	48.5
1783.21	46
1784.23	47
1785.24	43
1786.25	46
1787.27	44.5
1788.28	46
1789.29	42.5
1790.3	41
1791.32	48
1792.33	42
1793.34	46.5
1794.35	45.5
1795.36	44
1796.37	42.5
1797.38	46
1798.4	41
1799.41	41.5
1800.42	45
1801.43	45.5
1802.44	44.5
1803.45	42
1804.46	44.5
1805.47	42
1806.48	46.5
1807.49	43.5
1808.5	43.5
1809.51	43
1810.52	41.5
1811.53	45.5
1812.53	46.5
1813.54	45
1814.55	45
1815.56	43.5
1816.57	45
1817.58	43.5
1818.58	41.5
1819.59	42.5
1820.6	43.5
1821.61	41
1822.61	38
1823.62	46
1824.63	42
1825.64	46.5
1826.64	47.5
1827.65	42.5
1828.66	45
1829.66	46
1830.67	40.5
1831.67	45
1832.68	44
1833.68	37
1834.69	46.5
1835.7	40.5
1836.7	41.5
1837.71	45
1838.71	43.5
1839.71	43
1840.72	39.5
1841.72	44.5
1842.73	41.5
1843.73	43
1844.74	40
1845.74	40.5
1846.74	44
1847.75	40
1848.75	41.5
1849.75	43
1850.76	45
1851.76	37
1852.76	47
1853.76	44
1854.77	41
1855.77	43
1856.77	40.5
1857.77	40
1858.77	46
1859.78	39.5
1860.78	40
1861.78	40
1862.78	45.5
1863.78	44.5
1864.78	48.5
1865.78	41.5
1866.78	43
1867.78	40
1868.78	41
1869.78	46
1870.78	42
1871.78	44.5
1872.78	39
1873.78	39
1874.78	45.5
1875.78	46
1876.78	45.5
1877.78	35
1878.78	38.5
1879.77	44
1880.77	40
1881.77	40
1882.77	40
1883.77	43.5
1884.76	41.5
1885.76	43
1886.76	39
1887.76	40.5
1888.75	39
1889.75	43.5
1890.75	40.5
1891.74	40
1892.74	42.5
1893.74	42
1894.73	42
1895.73	44
1896.72	41
1897.72	38.5
1898.72	39.5
1899.71	41.5
1900.71	41
1901.7	43
1902.7	41
1903.69	48.5
1904.69	41.5
1905.68	45
1906.67	47
1907.67	42
1908.66	45.5
1909.66	41
1910.65	34
1911.64	42.5
1912.64	38.5
1913.63	43
1914.62	46.5
1915.62	42
1916.61	44.5
1917.6	43
1918.59	43
1919.59	44
1920.58	41
1921.57	43
1922.56	40
1923.55	46.5
1924.55	40.5
1925.54	43.5
1926.53	43.5
1927.52	40
1928.51	43
1929.5	42
1930.49	38.5
1931.48	39.5
1932.47	44
1933.46	46.5
1934.45	43
1935.44	44.5
1936.43	46.5
1937.42	38.5
1938.41	42.5
1939.4	38.5
1940.39	42.5
1941.38	42
1942.37	37
1943.36	40.5
1944.34	41
1945.33	40
1946.32	42
1947.31	44
1948.3	43.25
1949.28	42.5
1950.27	42
1951.26	40
1952.25	43
1953.23	38.5
1954.22	43
1955.21	43
1956.2	39.5
1957.18	40.5
1958.17	41
1959.15	44.5
1960.14	44
1961.13	41.5
1962.11	44
1963.1	38
1964.08	44.5
1965.07	44
1966.05	39
1967.04	41
1968.02	41
1969.01	42
1969.99	44
1970.98	43
1971.96	42.5
1972.94	37
1973.93	39.5
1974.91	34.5
1975.9	45
1976.88	45
1977.86	43.5
1978.85	40.5
1979.83	44.5
1980.81	46
1981.8	42.5
1982.78	38.5
1983.76	37
1984.74	44
1985.72	42
1986.71	41
1987.69	47
1988.67	39.5
1989.65	36.5
1990.63	38.5
1991.61	36.5
1992.6	35.5
1993.58	43.5
1994.56	41
1995.54	40.5
1996.52	41.5
1997.5	40
1998.48	36
1999.46	39.5
2000.44	44
2001.42	40.5
2002.4	44
2003.38	39.5
2004.36	42
2005.34	41.5
2006.32	39
2007.29	44
2008.27	39.5
2009.25	38.5
2010.23	43
2011.21	39.5
2012.19	42
2013.16	39.5
2014.14	41.5
2015.12	42
2016.1	38.5
2017.07	39
2018.05	38.5
2019.03	43
2020	37
2020.98	39
2021.96	42.5
2022.93	38
2023.91	41.5
2024.89	40.5
2025.86	37.5
2026.84	41
2027.81	35.5
2028.79	40
2029.77	38
2030.74	41.5
2031.72	44
2032.69	42
2033.67	41.5
2034.64	41.5
2035.61	42
2036.59	43.5
2037.56	42
2038.54	38.5
2039.51	39
2040.48	38.5
2041.46	36.5
2042.43	33
2043.41	39.5
2044.38	43
2045.35	39.5
2046.32	35.5
2047.3	38
2048.27	38.5
2049.24	41.5
2050.21	40.5
2051.19	43
2052.16	39
2053.13	41
2054.1	40.5
2055.07	42
2056.04	43.5
2057.02	44
2057.99	35
2058.96	37.5
2059.93	35.5
2060.9	38
2061.87	38.5
2062.84	42.5
2063.81	34
2064.78	37
2065.75	42.5
2066.72	42
2067.69	40
2068.66	40.5
2069.63	40.5
2070.6	40.5
2071.57	37.5
2072.53	39.5
2073.5	38
2074.47	42
2075.44	38
2076.41	35
2077.38	41.5
2078.34	37.5
2079.31	40
2080.28	37.5
2081.25	37.5
2082.21	36
2083.18	41.5
2084.15	41.5
2085.12	35.5
2086.08	39
2087.05	34.5
2088.02	41.5
2088.98	37.5
2089.95	44.5
2090.91	43
2091.88	41
2092.85	43
2093.81	32
2094.78	34
2095.74	36
2096.71	40.5
2097.67	37.5
2098.64	35
2099.6	37
2100.57	40
2101.53	37.5
2102.5	39
2103.46	42
2104.42	35.5
2105.39	39
2106.35	37.5
2107.31	37
2108.28	37
2109.24	40.5
2110.2	40.5
2111.17	38
2112.13	39.5
2113.09	38
2114.06	37
2115.02	33.5
2115.98	40
2116.94	42.5
2117.9	35
2118.86	40
2119.83	37
2120.79	41
2121.75	42.5
2122.71	35
2123.67	39.5
2124.63	43.5
2125.59	42.5
2126.55	41
2127.51	39
2128.48	38
2129.43	36.5
2130.4	38
2131.35	41.5
2132.31	39
2133.27	39
2134.23	42
2135.19	43
2136.15	36.5
2137.11	36
2138.07	37
2139.03	37.5
2139.99	39.5
2140.95	40.5
2141.9	34.5
2142.86	39.9818
2143.82	35.0079
2144.78	37.0349
2145.74	39.0023
2146.69	38.9687
2147.65	37.5578
2148.61	37.4914
2149.56	40.2257
2150.52	38.6983
2151.48	38.9821
2152.44	38.2852
2153.39	35.892
2154.35	38.0587
2155.3	36.4968
2156.26	41.7682
2157.22	36.3085
2158.17	34.3739
2159.13	40.5532
2160.08	38.3243
2161.04	35.3762
2161.99	37.8357
2162.95	37.9575
2163.9	37.7182
2164.86	35.7375
2165.81	36.8055
2166.77	36.9561
2167.72	37.9013
2168.68	36.6111
2169.63	34.8263
2170.58	40.1465
2171.54	38.3295
2172.49	37.9593
2173.44	38.4744
2174.4	38.5243
2175.35	33.4633
2176.3	34.1453
2177.26	40.1483
2178.21	38.7897
2179.16	34.5558
2180.11	35.1449
2181.07	36.0198
2182.02	35.5657
2182.97	36.1555
2183.92	35.371
2184.88	39.1304
2185.83	37.4625
2186.78	38.4675
2187.73	37.2448
2188.68	38.1793
2189.63	35.7287
2190.58	37.6836
2191.53	35.795
2192.48	35.2338
2193.43	36.2623
2194.38	37.7367
2195.33	33.1058
2196.28	38.6478
2197.23	34.3369
2198.18	35.5229
2199.13	36.8457
2200.08	38.3564
2201.03	34.0196
2201.98	38.3965
2202.93	38.4244
2203.88	36.2809
2204.83	36.2829
2205.78	38.7919
2206.72	38.6062
2207.67	37.2839
2208.62	37.5517
2209.57	37.4733
2210.52	37.6117
2211.46	36.7844
2212.41	41.3224
2213.36	35.7116
2214.31	35.0093
2215.25	36.0654
2216.2	36.9331
2217.15	36.0236
2218.09	33.453
2219.04	34.3596
2219.99	36.5538
2220.93	34.5042
2221.88	38.8702
2222.83	39.5893
2223.77	38.1736
2224.72	37.2269
2225.66	33.7043
2226.61	36.555
2227.55	36.0003
2228.5	34.6454
2229.44	36.7919
2230.39	36.7691
2231.33	34.9821
2232.28	36.7258
2233.22	37.318
2234.17	34.7117
2235.11	34.5513
2236.05	38.4092
2237	36.1336
2237.94	36.3208
2238.88	37.647
2239.83	34.8775
2240.04	34
2240.98	34.5
2241.93	38
2242.88	34.5
2243.83	36
2244.78	38
2245.72	36.5
2246.67	35.5
2247.62	35.5
2248.56	37.5
2249.51	38
2250.46	35
2251.4	37
2252.35	38.5
2253.3	35.5
2254.24	37.5
2255.19	33.5
2256.14	34
2257.08	40.5
2258.03	42.5
2258.97	37
2259.92	34.5
2260.86	37
2261.81	31
2262.75	36.5
2263.7	34.5
2264.64	37
2265.59	34.5
2266.53	40
2267.48	38.5
2268.42	38.5
2269.36	36.5
2270.31	35.5
2271.25	36.5
2272.19	39.5
2273.14	29
2274.08	36
2275.02	38
2275.97	37
2276.91	37.5
2277.85	34.5
2278.8	39.5
2279.74	38.5
2280.68	38
2281.62	35
2282.56	36
2283.51	37
2284.45	32.5
2285.39	37.5
2286.33	36.5
2287.27	42.5
2288.21	37
2289.15	37
2290.09	38.5
2291.04	32
2291.98	36
2292.92	35.5
2293.86	35
2294.8	38
2295.74	37.5
2296.68	36.5
2297.62	38.5
2298.56	37
2299.5	35
2300.44	36
2301.37	36.5
2302.31	38
2303.25	36
2304.19	39
2305.13	37
2306.07	38.5
2307.01	38
2307.94	35
2308.88	39.5
2309.82	37.5
2310.76	38.5
2311.7	34
2312.63	40
2313.57	38
2314.51	38
2315.44	35
2316.38	35
2317.32	35.5
2318.26	38
2319.19	35
2320.13	32
2321.06	35
2322	35
2322.94	38
2323.87	37
2324.81	34
2325.74	38.5
2326.68	35
2327.61	35
2328.55	36
2329.48	36
2330.42	37
2331.35	35
2332.29	37
2333.22	35
2334.16	41
2335.09	36
2336.02	37
2336.96	36.5
2337.89	35
2338.83	34.5
2339.76	36
2340.69	39
2341.63	35.5
2342.56	35
2343.49	34.5
2344.42	35.5
2345.36	32
2346.29	34.5
2347.22	33
2348.15	34.5
2349.09	33
2350.02	38.5
2350.95	39.5
2351.88	39.5
2352.81	38
2353.74	36.5
2354.68	33
2355.61	32
2356.54	40.5
2357.47	36
2358.4	35
2359.33	36
2360.26	34.5
2361.19	36
2362.12	37.5
2363.05	35.5
2363.98	37
2364.91	35.5
2365.84	39
2366.77	36.5
2367.7	35
2368.63	35.5
2369.56	36
2370.49	36
2371.41	40
2372.34	39
2373.27	37
2374.2	34
2375.13	37
2376.06	38.5
2376.98	33.5
2377.91	38
2378.84	35.5
2379.77	35.5
2380.69	35
2381.62	36.5
2382.55	36.5
2383.47	37.5
2384.4	36
2385.33	36.5
2386.25	37
2387.18	35
2388.11	36.5
2389.03	38
2389.96	37
2390.89	35.5
2391.81	35
2392.74	41
2393.66	37.5
2394.59	38.5
2395.51	34.5
2396.44	39.5
2397.36	36
2398.29	38
2399.21	40
2400.14	35
2401.06	37.5
2401.99	37
2402.91	39
2403.83	39.5
2404.76	37
2405.68	37.5
2406.6	41.5
2407.53	39.5
2408.45	36.5
2409.37	37
2410.3	36
2411.22	36
2412.14	36
2413.06	36.5
2413.99	33
2414.91	36
2415.83	39.5
2416.75	39
2417.68	36
2418.6	33.5
2419.52	37
2420.44	31.5
2421.36	35.5
2422.28	35.5
2423.2	33.5
2424.12	35
2425.05	37
2425.97	36.5
2426.89	35
2427.81	37.5
2428.73	38
2429.65	31
2430.57	36.5
2431.49	36
2432.41	35.5
2433.33	33
2434.25	37
2435.17	35.5
2436.08	37
2437	36.5
2437.92	37
2438.84	36
2439.76	39
2440.68	38.5
2441.6	36
2442.51	33.5
2443.43	39
2444.35	34
2445.27	34
2446.19	36
2447.1	37
2448.02	35
2448.94	34.5
2449.85	36.5
2450.77	37
2451.69	36
2452.61	39.5
2453.52	35.5
2454.44	35.5
2455.35	36
2456.27	32.5
2457.19	34.5
2458.1	36
2459.02	38
2459.94	36
2460.85	36
2461.77	35
2462.68	39
2463.6	34
2464.51	36.5
2465.43	31
2466.34	39
2467.25	36.5
2468.17	34.5
2469.08	35.5
2470	32
2470.91	29.5
2471.83	38.5
2472.74	40.5
2473.65	30.5
2474.57	38
2475.48	36.5
2476.39	34
2477.31	36.5
2478.22	35
2479.13	36.5
2480.04	36
2480.96	38.5
2481.87	30
2482.78	40.5
2483.69	36.5
2484.6	33
2485.52	36.5
2486.43	36.5
2487.34	30.5
2488.25	35.5
2489.16	37
2490.07	41
2490.99	37.5
2491.9	38
2492.81	41
2493.72	40
2494.63	42
2495.54	40
2496.45	39.5
2497.36	44
2498.27	41
2499.18	40.5
2500.09	41
2501	42
2501.91	46
2502.82	38
2503.73	40
2504.63	34.5
2505.54	40.5
2506.45	40
2507.36	40
2508.27	40.5
2509.18	41
2510.09	30
2510.99	37
2511.9	38
2512.81	38.5
2513.72	36
2514.62	39.5
2515.53	35
2516.44	38
2517.35	36
2518.25	39.5
2519.16	33.5
2520.07	32.5
2520.97	30
2521.88	40
2522.79	32
2523.69	36
2524.6	37.5
2525.51	37
2526.41	36
2527.32	34
2528.22	38
2529.13	38
2530.03	36
2530.94	33
2531.84	37.5
2532.75	38.5
2533.65	36.5
2534.56	32
2535.46	37.5
2536.37	33.5
2537.27	39
2538.17	33
2539.08	37.5
2539.98	34
2540.89	39
2541.79	40
2542.69	36
2543.6	37
2544.5	35
2545.4	34
2546.31	40.5
2547.21	39.5
2548.11	37.5
2549.01	35
2549.92	37
2550.82	32
2551.72	36.5
2552.62	30
2553.52	40
2554.42	31
2555.33	39.5
2556.23	39
2557.13	38
2558.03	38.5
2558.93	34
2559.83	34.5
2560.73	37
2561.63	36.5
2562.53	39
2563.43	34
2564.33	35
2565.24	35.5
2566.13	37
2567.04	32.5
2567.93	38
2568.83	33.5
2569.73	39.5
2570.63	35
2571.53	39.5
2572.43	37.5
2573.33	39
2574.23	35
2575.13	37
2576.03	36
2576.92	35.5
2577.82	37
2578.72	33.5
2579.62	34
2580.52	37
2581.41	34.5
2582.31	34.5
2583.21	39
2584.11	34
2585	33.5
2585.9	32.5
2586.8	39
2587.69	36
2588.59	40
2589.49	34
2590.38	33.5
2591.28	38.5
2592.18	36.5
2593.07	34.5
2593.97	37.5
2594.86	36.5
2595.76	34.5
2596.66	39.5
2597.55	35
2598.45	37
2599.34	33
2600.24	31
2601.13	35.5
2602.03	36
2602.92	37.5
2603.81	28
2604.71	35.5
2605.6	31.5
2606.5	33.5
2607.39	33.5
2608.28	37
2609.18	34
2610.07	38
2610.97	34
2611.86	35.5
2612.75	35.5
2613.64	39
2614.54	34.5
2615.43	32
2616.32	34.5
2617.22	34.5
2618.11	35
2619	38.5
2619.89	36.5
2620.78	31
2621.68	31.5
2622.57	35.5
2623.46	36
2624.35	35
2625.24	35
2626.13	32
2627.02	34
2627.91	34.5
2628.81	35.5
2629.7	36
2630.59	37.5
2631.48	35.5
2632.37	39.5
2633.26	39.5
2634.15	34.5
2635.04	33.5
2635.93	32.5
2636.82	38
2637.71	37.5
2638.59	35
2639.48	37
2640.37	36
2641.26	36
2642.15	34
2643.04	36
2643.93	33
2644.82	38
2645.71	34
2646.59	37.5
2647.48	36.5
2648.37	41
2649.26	32.5
2650.15	36
2651.03	33
2651.92	31.5
2652.81	33.5
2653.69	39
2654.58	32.5
2655.47	35.5
2656.35	37
2657.24	35.5
2658.13	30
2659.01	35.5
2659.9	37
2660.79	33
2661.67	34
2662.56	39.5
2663.44	36
2664.33	34
2665.22	34
2666.1	34
2666.99	34
2667.87	33
2668.76	34.5
2669.64	35
2670.52	36.5
2671.41	35
2672.29	36
2673.18	37.5
2674.06	30
2674.95	37
2675.83	31.5
2676.71	37
2677.6	35
2678.48	33.5
2679.36	34.5
2680.25	32
2681.13	39
2682.01	36.5
2682.9	36
2683.78	31.5
2684.66	32
2685.55	35
2686.43	32
2687.31	32
2688.19	31
2689.07	33.5
2689.96	35
2690.84	32.5
2691.72	34
2692.6	32
2693.48	36
2694.36	37.5
2695.24	37
2696.12	35
2697	36
2697.89	31.5
2698.77	39.5
2699.65	33
2700.53	35
2701.41	35.5
2702.29	35.5
2703.17	39
2704.05	36.5
2704.93	39.5
2705.81	31
2706.69	33.5
2707.57	37
2708.44	33
2709.32	34.5
2710.2	31
2711.08	35
2711.96	32
2712.84	37
2713.72	33
2714.59	28.5
2715.47	39
2716.35	39
2717.23	36.5
2718.11	36
2718.98	40
2719.86	38.5
2720.74	33.5
2721.62	37.5
2722.49	38
2723.37	33.5
2724.25	38
2725.12	35.5
2726	37
2726.88	32
2727.75	40
2728.63	32
2729.51	37.5
2730.38	35.5
2731.26	35.5
2732.13	36.5
2733.01	36.5
2733.88	33.5
2734.76	35
2735.63	34
2736.51	34.5
2737.38	35
2738.26	39.5
2739.13	35.5
2740.01	36.5
2740.88	35.5
2741.76	34
2742.63	38
2743.5	40.5
2744.38	38.5
2745.25	34
2746.13	36
2747	39
2747.87	36
2748.75	33
2749.62	36
2750.49	31.5
2751.36	35
2752.24	33.5
2753.11	36
2753.98	35
2754.86	34.5
2755.73	36
2756.6	35
2757.47	34.5
2758.34	34.5
2759.22	35.5
2760.09	38.5
2760.96	37
2761.83	39
2762.7	32.5
2763.57	38.5
2764.44	35
2765.31	39
2766.18	42.5
2767.06	43
2767.93	38.5
2768.8	38
2769.67	37
2770.54	36
2771.41	39
2772.28	36
2773.15	38
2774.02	42
2774.89	39.5
2775.75	40
2776.62	37.5
2777.49	40
2778.36	41
2779.23	39
2780.1	43
2780.97	43.5
2781.84	48
2782.71	39.5
2783.57	46.5
2784.44	44
2785.31	47
2786.18	45.5
2787.04	47
2787.91	48.5
2788.78	46
2789.65	55.5
2790.51	50
2791.38	53.5
2792.25	52.5
2793.12	52.5
2793.98	53.5
2794.85	51.5
2795.72	56
2796.58	61.5
2797.45	53.5
2798.31	51.5
2799.18	50
2800.05	50
2800.91	53
2801.78	53
2802.64	49
2803.51	56
2804.37	54
2805.24	54
2806.1	58
2806.97	53.5
2807.83	57.5
2808.7	50
2809.56	57.5
2810.43	57
2811.29	58
2812.15	53.5
2813.02	54.5
2813.88	54
2814.75	58.5
2815.61	55
2816.47	51.5
2817.34	53
2818.2	55
2819.06	55
2819.92	54
2820.79	48
2821.65	53.5
2822.51	52
2823.37	55.5
2824.24	50
2825.1	56.5
2825.96	52
2826.82	55
2827.69	57.5
2828.55	54
2829.41	54
2830.27	51
2831.13	54
2831.99	53
2832.85	54
2833.71	52
2834.58	53.5
2835.44	53
2836.3	52.5
2837.16	49.5
2838.02	54
2838.88	47.5
2839.74	55.5
2840.6	54
2841.46	55.5
2842.32	55.5
2843.18	53
2844.04	55
2844.9	57
2845.75	52
2846.61	57.5
2847.47	52
2848.33	55.5
2849.19	60
2850.05	58
2850.91	60
2851.77	54
2852.62	56
2853.48	53
2854.34	58
2855.2	57
2856.06	62.5
2856.91	57
2857.77	67.5
2858.63	57.5
2859.48	63.5
2860.34	58
2861.2	65.5
2862.06	64
2862.91	64
2863.77	63
2864.63	64
2865.48	66
2866.34	68.5
2867.19	68
2868.05	66.5
2868.91	80
2869.76	77.5
2870.62	83
2871.47	87
2872.33	81
2873.18	89
2874.04	83
2874.89	92
2875.75	93.5
2876.6	99
2877.46	96.5
2878.31	95.5
2879.17	102
2880.02	103.5
2880.88	114
2881.73	114.5
2882.58	120.5
2883.44	132.5
2884.29	133
2885.14	134.5
2886	142
2886.85	149
2887.7	151
2888.56	169
2889.41	173.5
2890.26	184
2891.12	188
2891.97	214
2892.82	212
2893.67	239
2894.52	245
2895.38	280.5
2896.23	292
2897.08	300.5
2897.93	324
2898.78	340
2899.64	381.5
2900.49	392
2901.34	413.5
2902.19	459.5
2903.04	475
2903.89	499
2904.74	498
2905.59	512
2906.44	512
2907.29	514.5
2908.14	492.5
2908.99	485.5
2909.84	461
2910.69	433.5
2911.54	412
2912.39	383
2913.24	348
2914.09	329
2914.94	306.5
2915.79	269.5
2916.64	262.5
2917.49	232
2918.34	206
2919.18	195.5
2920.03	179.5
2920.88	162
2921.73	164
2922.58	152.5
2923.42	144
2924.27	131
2925.12	127
2925.97	118.5
2926.82	116
2927.66	114
2928.51	106.5
2929.36	101
2930.2	102
2931.05	94
2931.9	94.5
2932.74	91
2933.59	89.5
2934.44	86.5
2935.28	88
2936.13	87
2936.98	83.5
2937.82	79
2938.67	79
2939.51	78
2940.36	77
2941.2	84
2942.05	84
2942.9	76.5
2943.74	87
2944.58	88
2945.43	85.5
2946.27	87
2947.12	88.5
2947.96	87.5
2948.81	94
2949.65	93
2950.5	97
2951.34	88
2952.18	108
2953.03	115
2953.87	116.5
2954.71	126
2955.56	128
2956.4	141
2957.24	151.5
2958.09	166.5
2958.93	171.5
2959.77	195.5
2960.62	205
2961.46	204.5
2962.3	220
2963.14	230.5
2963.98	229.5
2964.83	241.5
2965.67	236
2966.51	238.5
2967.35	228.5
2968.19	232.5
2969.04	218
2969.88	206
2970.72	201
2971.56	191.968
2972.4	175.886
2973.24	166.76
2974.08	159.723
2974.92	149.779
2975.76	147.954
2976.6	139.901
2977.44	127.27
2978.28	121.173
2979.12	117.696
2979.96	104.004
2980.8	100.834
2981.64	97.6869
2982.48	88.841
2983.32	88.5
2984.16	82.8411
2985	84.5175
2985.84	79.1382
2986.68	71.1912
2987.52	74.9947
2988.35	74.6799
2989.19	69.9856
2990.03	70.0487
2990.87	64.4258
2991.71	61.7282
2992.55	62.0006
2993.38	61.0697
2994.22	58.4495
2995.06	60.3559
2995.9	61.2419
2996.73	53.0835
2997.57	54.7159
2998.41	56.684
2999.25	54.7168
3000.08	47.8588
3000.92	50.7095
3001.76	47.2403
3002.59	50.1078
3003.43	48.3515
3004.27	46.4248
3005.1	49.5044
3005.94	47.0117
3006.78	49.3624
3007.61	45.1454
3008.45	46.9724
3009.28	47.4439
3010.12	43.7669
3010.95	42.6702
3011.79	44.1095
3012.62	41.7512
3013.46	44.9374
3014.29	46.3529
3015.13	41.8591
3015.96	42.7903
3016.8	43.2536
3017.63	39.1821
3018.47	41.6639
3019.3	38.262
3020.14	40.0924
3020.97	42.1146
3021.8	41.5007
3022.64	39.098
3023.47	41.3581
3024.3	39.3495
3025.14	39.4263
3025.97	37.4747
3026.8	40.9057
3027.64	37.7979
3028.47	35.3398
3029.3	34.7868
3030.14	38.0404
3030.97	39.3261
3031.8	36.6135
3032.63	37.0054
3033.46	36.4276
3034.3	37.8444
3035.13	36.8108
3035.96	35.3629
3036.79	35.2338
3037.62	35.7582
3038.46	35.6619
3039.29	37.2385
3040.12	35.7466
3040.95	33.8147
3041.78	34.1725
3042.61	35.0257
3043.44	38.4901
3044.27	38.806
3045.1	40.3666
3045.93	37.707
3046.76	37.4389
3047.59	39.2369
3048.42	35.3107
3049.25	37.0987
3050.08	35.5877
3050.91	37.0364
3051.74	37.2817
3052.57	34.5381
3053.4	37.4583
3054.23	38.2618
3055.06	35.3207
3055.89	35.5939
3056.72	37.1374
3057.32	37.5
3058.15	36.5
3058.98	39.5
3059.82	34
3060.65	33.5
3061.48	34
3062.31	36.5
3063.15	32
3063.98	38
3064.81	37.5
3065.64	39
3066.48	36
3067.31	37.5
3068.14	35
3068.97	36
3069.8	33
3070.63	34
3071.47	36.5
3072.3	36
3073.13	35
3073.96	33.5
3074.79	36.5
3075.62	35.5
3076.45	33.5
3077.28	38
3078.11	37
3078.94	39
3079.77	33.5
3080.6	38.5
3081.43	32.5
3082.26	38
3083.09	33
3083.92	35
3084.75	38.5
3085.58	35
3086.41	39.5
3087.24	37
3088.07	35.5
3088.9	35.5
3089.73	37
3090.55	36.5
3091.38	33
3092.21	38.5
3093.04	35.5
3093.87	39
3094.7	34.5
3095.52	39.5
3096.35	40
3097.18	38
3098.01	34.5
3098.84	40.5
3099.66	37
3100.49	36
3101.32	35
3102.14	38
3102.97	34
3103.8	38
3104.62	38.5
3105.45	37.5
3106.28	37.5
3107.1	34
3107.93	37.5
3108.76	31.5
3109.58	33.5
3110.41	38.5
3111.23	36.5
3112.06	37.5
3112.89	34
3113.71	41
3114.54	37.5
3115.36	37
3116.19	42
3117.01	35.5
3117.84	39.5
3118.66	35
3119.49	42.5
3120.31	38
3121.13	40.5
3121.96	39.5
3122.78	40
3123.61	32
3124.43	40.5
3125.25	38.5
3126.08	37.5
3126.9	35
3127.73	38.5
3128.55	34
3129.37	34
3130.19	37
3131.02	38
3131.84	36
3132.66	34.5
3133.49	30
3134.31	35
3135.13	37.5
3135.95	35.5
3136.78	35
3137.6	32
3138.42	33.5
3139.24	40.5
3140.06	35
3140.88	36.5
3141.71	34.5
3142.53	36
3143.35	34
3144.17	31.5
3144.99	36
3145.81	36
3146.63	33
3147.45	37
3148.27	34
3149.09	35
3149.91	34
3150.73	35.5
3151.56	36
3152.37	37
3153.2	37.5
3154.01	34.5
3154.83	35
3155.65	33.5
3156.47	32.5
3157.29	32.5
3158.11	31.5
3158.93	34
3159.75	30.5
3160.57	32.5
3161.39	33
3162.21	35.5
3163.02	34
3163.84	35
3164.66	31.5
3165.48	34
3166.3	31
3167.11	32.5
3167.93	35
3168.75	33.5
3169.57	29.5
3170.39	33.5
3171.2	32
3172.02	32.5
3172.84	28
3173.65	28.5
3174.47	34
3175.29	34.5
3176.1	30.5
3176.92	31.5
3177.74	28.5
3178.55	30.5
3179.37	37
3180.19	28
3181	35
3181.82	30.5
3182.63	32.5
3183.45	28
3184.27	31.5
3185.08	34.5
3185.9	32.5
3186.71	24
3187.53	35
3188.34	31.5
3189.16	31.5
3189.97	31
3190.79	31
3191.6	29.5
3192.41	34
3193.23	33.5
3194.04	32.5
3194.86	33.5
3195.67	32
3196.48	35.5
3197.3	31.5
3198.11	30.5
3198.93	29
3199.74	34.5
3200.55	29
3201.36	31.5
3202.18	33
3202.99	28.5
3203.8	28.5
3204.62	26
3205.43	30.5
3206.24	32.5
3207.05	29.5
3207.87	31
3208.68	28.5
3209.49	28
3210.3	33
3211.11	33
3211.93	34
3212.74	31
3213.55	33
3214.36	30
3215.17	29.5
3215.98	31.5
3216.79	28
3217.6	34.5
3218.41	28
3219.22	30
3220.03	28.5
3220.85	33
3221.66	31.5
3222.47	32.5
3223.28	30.5
3224.09	33
3224.9	32
3225.71	31
3226.52	28.5
3227.33	29.5
3228.13	32.5
3228.94	33.5
3229.75	33.5
3230.56	31.5
3231.37	30
3232.18	27
3232.99	31
3233.8	32
3234.61	33.5
3235.41	31
3236.22	29
3237.03	29
3237.84	30.5
3238.65	28
3239.45	31
3240.26	30.5
3241.07	33.5
3241.88	29
3242.68	35
3243.49	32.5
3244.3	30
3245.1	25.5
3245.91	36
3246.72	30
3247.53	36
3248.33	28.5
3249.14	29.5
3249.95	28
3250.75	34
3251.56	32.5
3252.36	29
3253.17	31.5
3253.97	30.5
3254.78	28
3255.59	34.5
3256.39	32.5
3257.2	32.5
3258	34
3258.81	27
3259.61	30.5
3260.42	28
3261.22	31.5
3262.03	27
3262.83	30
3263.64	32
3264.44	25
3265.24	33.5
3266.05	28
3266.85	33
3267.66	26
3268.46	31.5
3269.26	33
3270.07	28.5
3270.87	30.5
3271.67	29.5
3272.48	31
3273.28	31.5
3274.08	28.5
3274.89	31.5
3275.69	28
3276.49	31.5
3277.29	29.5
3278.1	32.5
3278.9	29.5
3279.7	32
3280.5	31
3281.3	35
3282.11	32.5
3282.91	31
3283.71	28
3284.51	30.5
3285.31	30
3286.11	32.5
3286.91	33
3287.72	30.5
3288.52	29
3289.32	29
3290.12	32
3290.92	26.5
3291.72	31
3292.52	30
3293.32	33.5
3294.12	28
3294.92	33
3295.72	32.5
3296.52	29
3297.32	31.5
3298.12	29.5
3298.92	30.5
3299.72	27.5
3300.52	33
3301.32	30
3302.12	26.5
3302.92	30
3303.71	25.5
3304.51	25.5
3305.31	30.5
3306.11	27.5
3306.91	30
3307.71	29
3308.5	27
3309.3	25
3310.1	32
3310.9	29.5
3311.7	26.5
3312.49	31
3313.29	30.5
3314.09	33
3314.89	32
3315.68	30
3316.48	32
3317.28	27
3318.07	30
3318.87	32.5
3319.67	29.5
3320.46	33
3321.26	31.5
3322.06	30.5
3322.85	29
3323.65	32.5
3324.44	28.5
3325.24	30.5
3326.04	28.5
3326.83	23.5
3327.63	28.5
3328.42	28
3329.22	29.5
3330.01	30
3330.81	32
3331.6	31.5
3332.4	30
3333.19	34.5
3333.99	34.5
3334.78	31
3335.58	29.5
3336.37	30
3337.17	31.5
3337.96	33
3338.75	30
3339.55	30
3340.34	32.5
3341.13	35
3341.93	28
3342.72	31
3343.51	32
3344.31	27.5
3345.1	28.5
3345.89	28
3346.69	29.5
3347.48	32.5
3348.27	31
3349.06	28
3349.86	30
3350.65	26.5
3351.44	30.5
3352.23	28.5
3353.03	32.5
3353.82	30
3354.61	31.5
3355.4	30.5
3356.19	26.5
3356.98	29.5
3357.78	29.5
3358.57	30.5
3359.36	29.5
3360.15	33.5
3360.94	30
3361.73	29.5
3362.52	29
3363.31	30.5
3364.1	32
3364.89	31
3365.68	31
3366.47	31
3367.26	32
3368.05	31
3368.84	31
3369.63	31
3370.42	32
3371.21	27.5
3372	29
3372.79	29.5
3373.58	29.5
3374.37	30.5
3375.16	27
3375.95	28.5
3376.73	31
3377.52	29
3378.31	34.5
3379.1	30.5
3379.89	31.5
3380.68	27.5
3381.46	32
3382.25	33
3383.04	28.5
3383.83	29.5
3384.62	33
3385.4	32.5
3386.19	28
3386.98	28.5
3387.76	29
3388.55	26.5
3389.34	27
3390.13	28
3390.91	29.5
3391.7	27.5
3392.49	34
3393.27	33
3394.06	26.5
3394.84	29.5
3395.63	32
3396.42	29
3397.2	29.5
3397.99	30.5
3398.77	28
3399.56	28
3400.34	31
3401.13	29.5
3401.92	27.5
3402.7	29.5
3403.49	29
3404.27	26
3405.06	30.5
3405.84	28
3406.62	28.5
3407.41	28
3408.19	28
3408.98	28
3409.76	31
3410.55	30
3411.33	28.5
3412.11	31.5
3412.9	31.5
3413.68	28
3414.46	32
3415.25	27
3416.03	28
3416.81	28.5
3417.6	25
3418.38	34
3419.16	29
3419.95	30.5
3420.73	26
3421.51	29
3422.29	27.5
3423.08	30
3423.86	29.5
3424.64	30
3425.42	28
3426.2	28
3426.98	30
3427.77	29.5
3428.55	30.5
3429.33	31.5
3430.11	28.5
3430.89	28
3431.67	29.5
3432.45	25.5
3433.24	30
3434.02	33
3434.8	31
3435.58	30.5
3436.36	27
3437.14	30.5
3437.92	31
3438.7	27.5
3439.48	29.5
3440.26	29.5
3441.04	31.5
3441.82	22.5
3442.6	27.5
3443.38	29
3444.16	29.5
3444.94	31.5
3445.71	29
3446.49	30.5
3447.27	31.5
3448.05	31.5
3448.83	26
3449.61	30
3450.39	29.5
3451.17	29.5
3451.94	27
3452.72	31
3453.5	26
3454.28	27.5
3455.06	30.5
3455.83	30
3456.61	28
3457.39	28
3458.17	28
3458.94	28.5
3459.72	25
3460.5	28
3461.28	27.5
3462.05	28.5
3462.83	30
3463.61	29
3464.38	30
3465.16	31
3465.93	31
3466.71	26.5
3467.49	28.5
3468.26	28
3469.04	30
3469.82	31
3470.59	26
3471.37	33
3472.14	29
3472.92	30
3473.69	31.5
3474.47	27
3475.24	30
3476.02	31.5
3476.79	26
3477.57	30
3478.34	29.5
3479.12	33.5
3479.89	32.5
3480.67	25.5
3481.44	26
3482.21	26
3482.99	30
3483.76	30
3484.54	29.5
3485.31	27
3486.08	27
3486.86	33
3487.63	27.5
3488.4	29
3489.18	24.5
3489.95	29.5
3490.72	29
3491.5	33
3492.27	29.5
3493.04	28
3493.81	26.5
3494.59	28.5
3495.36	31
3496.13	29
3496.9	28
3497.67	29
3498.45	26.5
3499.22	28.5
3499.99	28
