#Acq. time (s)=	5
#Accumulations=	5
#Range (cm-¹)=	100...3500
#Windows=	4
#Autofocus=	Off
#AutoExposure=	Off
#Spike filter=	Multiple accum.
#Delay time (s)=	0
#Binning=	1
#Readout mode=	Signal
#DeNoise=	Off
#ICS correction=	Off
#Dark correction=	Off
#Inst. Process=	Off
#Instrument=	LabRAM HR Evol
#Detector=	Syncerity OE
#Objective=	x100_VIS
#Grating=	600 (500nm)
#ND Filter=	25%
#Laser=	633nm_Edge
#Hole=	100.021
#Range=	Visible
#Project=	verificaciones
#Sample=	a4
#Site=	plain
#Title=	bolusa4plain
#Remark=	
#Date=	09.01.2026 14:33
#Acquired=	09.01.2026 14:33:32
100.695	25.5
101.978	31
103.262	31
104.545	25
105.829	29.5
107.112	33
108.394	28
109.676	27
110.958	28.5
112.24	33
113.522	28
114.803	29.5
116.084	27
117.365	30
118.646	30.5
119.927	24
121.207	25
122.487	32
123.767	30
125.047	31
126.326	28
127.606	29.5
128.885	34
130.164	28.5
131.442	29.5
132.721	31.5
133.999	29
135.277	31
136.555	34.5
137.831	27.5
139.109	32
140.386	36
141.663	32.5
142.94	36.5
144.216	36.5
145.493	36
146.769	37
148.043	34.5
149.319	30
150.595	32.5
151.87	38
153.145	35
154.42	36
155.693	34
156.968	38.5
158.242	37.5
159.516	35
160.79	37
162.062	35.5
163.336	38.5
164.609	39
165.882	34
167.153	36.5
168.426	34
169.699	36
170.971	34.5
172.241	38.5
173.513	36
174.785	34
176.055	34
177.326	33
178.597	36
179.866	37
181.137	32
182.407	34
183.676	35
184.946	38.5
186.216	37
187.484	35
188.753	34.5
190.022	37
191.29	37.5
192.558	35.5
193.825	33.5
195.094	33
196.36	31
197.628	36
198.896	37
200.162	28
201.429	32
202.695	37
203.962	29
205.227	33.5
206.493	36
207.758	32.5
209.024	35.5
210.289	30
211.554	32
212.818	35.5
214.083	27
215.347	31
216.612	29
217.875	34
219.138	32
220.402	34
221.665	31
222.928	30.5
224.19	32.5
225.454	30
226.715	30.5
227.977	30
229.24	32
230.501	31
231.762	32.5
233.024	28.5
234.284	31.5
235.546	30.5
236.806	29
238.066	27
239.327	33
240.587	26
241.846	28
243.105	29
244.365	28
245.624	29.5
246.882	26
248.142	28.5
249.4	29
250.658	29
251.916	28.5
253.174	27
254.432	28.5
255.689	28.5
256.945	25.5
258.202	29
259.46	26
260.716	28.5
261.972	29
263.228	28.5
264.483	26
265.74	30
266.996	31.5
268.251	31.5
269.505	26
270.76	27
272.014	30
273.268	29
274.522	26
275.778	30
277.031	30
278.285	29.5
279.538	28.5
280.791	27.5
282.043	29
283.296	26
284.548	32
285.8	27
287.052	27.5
288.304	30.5
289.556	24.5
290.807	27
292.058	26
293.309	29.5
294.56	24
295.81	29
297.061	31
298.311	29.5
299.561	27
300.81	25
302.06	25
303.309	24.5
304.558	29
305.807	28
307.056	28
308.305	22.5
309.551	27.5
310.8	29.5
312.047	30.5
313.295	27
314.543	29
315.79	25
317.037	27.5
318.284	28.5
319.529	28
320.776	30
322.022	28.5
323.268	27
324.514	26
325.758	24
327.004	29.5
328.249	26
329.494	29.5
330.739	27
331.982	25
333.227	23
334.471	29
335.715	30
336.958	28
338.201	29
339.445	27.5
340.687	26
341.93	27
343.173	30
344.414	25
345.657	28
346.899	28
348.14	27.5
349.381	29
350.623	31
351.863	31.5
353.104	28
354.346	31
355.585	29.5
356.826	30
358.065	32
359.305	30.5
360.545	28
361.784	33.5
363.023	26
364.261	28.5
365.501	30.5
366.738	27.5
367.977	28.5
369.216	28.5
370.453	29
371.691	25
372.928	26
374.166	33
375.402	25
376.64	27.5
377.876	26
379.111	29.5
380.348	28.5
381.584	29
382.82	30.5
384.055	28
385.291	28.5
386.526	25
387.76	26.5
388.996	26.5
390.229	27.5
391.465	27
392.698	26.5
393.931	27.5
395.166	28
396.399	26.5
397.632	27
398.866	31
400.098	26.5
401.33	30
402.563	29
403.795	32
405.027	28.5
406.259	26.5
407.491	28
408.721	28
409.954	29.5
411.184	28
412.415	27.5
413.645	27.5
414.876	29
416.106	27
417.335	28.5
418.565	25
419.794	28.5
421.024	25
422.253	28
423.482	29.5
424.71	29.5
425.938	29
427.168	26
428.396	22
429.623	30.5
430.851	30
432.078	24.5
433.305	27
434.532	32
435.758	27
436.986	28
438.212	26
439.438	25
440.664	28.5
441.89	28
443.115	28
444.34	28.5
445.566	26.5
446.79	32
448.015	29.5
449.24	30.5
450.464	29.5
451.688	27
452.912	30
454.135	29
455.359	26.5
456.582	24.5
457.805	30.5
459.028	28
460.251	35
461.473	27.5
462.696	32
463.918	28
465.14	30.5
466.36	29.5
467.582	26.5
468.803	29
470.024	37
471.245	32
472.466	30.5
473.686	32.5
474.907	34.5
476.126	35.5
477.346	38
478.565	36.5
479.785	39
481.004	42.5
482.224	45
483.441	42.5
484.66	44.5
485.879	43
487.097	48.5
488.314	47.5
489.532	49.5
490.75	52.5
491.967	48
493.184	46
494.401	48
495.618	41.5
496.835	44
498.05	42
499.267	38
500.483	39.5
501.698	37
502.913	38
504.129	32.5
505.343	36
506.559	36
507.774	35.5
508.987	36.5
510.202	35.5
511.415	30
512.63	31
513.844	33
515.056	32.5
516.27	32
517.482	27
518.696	35
519.907	34.5
521.121	31.5
522.332	31
523.545	30
524.757	30.5
525.968	29
527.18	30.5
528.39	28.5
529.602	33.5
530.812	31.5
532.023	32
533.233	26
534.443	29
535.653	32
536.862	29
538.073	25.5
539.281	29
540.491	24.5
541.7	29
542.908	29
544.117	28
545.325	30
546.534	32
547.741	29
548.949	27.5
550.157	29
551.364	29.5
552.57	24.5
553.778	29.5
554.985	27.5
556.191	27
557.398	26.5
558.604	27.5
559.809	29
561.014	29
562.221	25.5
563.426	27.5
564.63	27.5
565.835	27
567.041	27
568.245	27.5
569.449	30.5
570.653	27.5
571.856	25
573.061	27.5
574.264	27
575.467	29
576.67	28.5
577.873	28
579.076	27.5
580.279	34
581.481	29.5
582.683	30.5
583.884	31
585.086	28
586.287	29
587.488	28
588.689	24.5
589.891	25.5
591.092	31.5
592.292	30.5
593.492	28.5
594.692	28.5
595.892	26
597.092	33.5
598.291	23.5
599.49	32.5
600.689	25.5
601.888	28
603.087	27.5
604.285	28.5
605.483	23.5
606.681	26.5
607.879	28
609.077	27
610.274	25
611.472	27
612.668	30
613.865	25
615.061	30.5
616.258	27
617.454	33.5
618.65	29
619.846	29
621.042	28
622.238	30
623.432	28
624.627	27
625.822	28.5
627.017	27.5
628.212	28
629.406	33.5
630.599	28.5
631.793	25.5
632.987	26
634.181	25.5
635.373	27
636.566	28
637.76	29
638.953	27
640.144	26.5
641.337	30
642.529	27
643.721	27.5
644.912	31.5
646.104	28.5
647.295	31.5
648.485	29.5
649.677	28.5
650.868	31.5
652.057	28.5
653.248	31
654.437	29
655.628	29.5
656.818	31
658.006	28.5
659.196	30.5
660.384	27.5
661.574	31
662.763	28
663.951	32.5
665.14	26.5
666.327	28
667.515	28
668.702	31
669.891	32
671.077	31.5
672.265	27
673.451	29
674.638	29
675.824	29.5
677.011	30.5
678.197	28
679.383	35
680.568	30.5
681.755	35
682.939	31
684.124	28
685.309	25.5
686.494	34
687.679	29
688.863	32
690.046	29.5
691.231	33
692.414	25
693.599	32
694.781	34.5
695.964	32.5
697.148	30.5
698.33	34.5
699.512	35.5
700.694	40
701.877	34
703.059	39
704.24	35
705.423	39.5
706.604	43.5
707.784	42.5
708.965	40.5
710.147	43
711.327	42
712.507	39
713.687	36
714.867	38
716.048	33
717.227	29.5
718.406	30
719.585	30.5
720.764	28.5
721.942	28
723.122	30
724.3	32
725.478	33
726.656	32
727.834	27.5
729.011	29
730.189	32.5
731.366	28
732.543	28
733.719	29
734.896	23.5
736.072	29.5
737.249	24.5
738.426	25
739.602	29
740.777	25.5
741.953	26.5
743.128	27.5
744.303	25.5
745.477	29.5
746.651	28
747.826	32
749	27.5
750.174	26.5
751.348	25.5
752.522	24.5
753.696	29.5
754.869	30
756.043	29
757.216	28.5
758.389	31
759.561	27
760.732	29.5
761.905	28.5
763.077	28
764.249	30.5
765.421	25.5
766.592	25
767.762	28
768.934	30
770.105	28.5
771.275	24
772.446	31
773.615	29.5
774.786	26
775.956	29.5
777.126	30.5
778.294	29
779.464	29.5
780.633	28
781.801	27
782.97	29.5
784.139	33
785.306	30.5
786.475	31.5
787.643	30.5
788.81	28.5
789.978	32.5
791.146	30
792.312	33
793.479	27
794.647	28.5
795.812	32
796.979	31
798.144	34
799.311	32
800.477	24
801.642	27
802.808	28
803.972	27
805.138	28
806.302	29.5
807.467	30.5
808.631	28
809.796	28.5
810.959	29
812.124	30
813.287	29
814.451	27
815.614	29.5
816.777	30
817.94	27.5
819.102	26
820.265	24
821.427	28
822.59	24
823.751	28.5
824.912	21.5
826.074	29
827.235	27
828.397	26
829.558	31.5
830.718	28
831.879	28.5
833.039	26
834.199	25.5
835.359	22.5
836.519	25.5
837.679	22
838.838	29.5
839.998	25
841.156	27.5
842.315	29.5
843.473	25.5
844.633	23
845.791	26.5
846.948	31
848.106	30
849.263	28
850.422	29.5
851.579	27
852.736	29.5
853.892	30.5
855.049	27.5
856.205	27
857.363	26
858.519	29
859.674	28
860.83	23
861.986	28.5
863.141	33.5
864.296	28
865.451	27.5
866.605	27.5
867.76	24.5
868.914	29.5
870.069	27.5
871.224	32.5
872.378	27.5
873.531	29.5
874.685	27.5
875.838	28
876.991	27
878.144	31.5
879.296	31.5
880.448	27.5
881.6	30.5
882.753	24.5
883.905	29.5
885.057	27
886.208	27
887.36	31
888.511	28
889.662	23
890.813	21
891.964	28.5
893.113	25
894.264	22.5
895.414	29
896.564	24
897.714	26.5
898.864	30.5
900.012	28.5
901.161	26.5
902.31	25.5
903.459	25
904.607	28
905.756	22
906.904	24.5
908.052	25.5
909.199	27.5
910.347	28.5
911.495	26
912.643	25
913.789	21.5
914.936	26.5
916.083	22.5
917.229	25
918.375	26.5
919.522	23
920.667	27.5
921.813	27.5
922.959	27.5
924.104	29.5
925.249	29.5
926.393	24.5
927.539	27
928.684	28.5
929.827	30.5
930.972	28
932.115	24.5
933.26	27.5
934.403	24
935.547	25.5
936.689	26.5
937.833	25.5
938.975	29
940.119	28.5
941.26	28
942.404	23.5
943.545	28.5
944.688	29.5
945.829	29.5
946.971	27
948.112	25.5
949.253	24.5
950.394	25
951.535	24
952.676	24
953.816	24
954.956	25
956.097	27
957.236	28.5
958.377	26
959.516	29
960.655	24
961.793	23.5
962.933	25.5
964.071	24.5
965.21	21.5
966.349	30
967.487	23.5
968.624	27.5
969.762	23.5
970.901	26
972.038	25
973.175	28
974.311	24
975.449	30
976.586	29
977.722	26.5
978.858	24.5
979.994	21.5
981.131	25
982.267	29
983.402	26
984.537	22.5
985.672	25.5
986.807	29
987.942	23.5
989.076	23
990.211	27
991.346	32.5
992.48	25.5
993.614	29.5
994.748	29.5
995.881	25.5
997.014	25.5
998.148	25.5
999.28	24.5
1000.41	23
1001.55	23
1002.68	29.5
1003.81	24
1004.94	24.5
1006.07	24.5
1007.21	26
1008.34	29
1009.47	25.5
1010.6	22.5
1011.73	26
1012.86	29
1013.99	27.5
1015.12	25.5
1016.25	24.5
1017.38	21
1018.51	26
1019.64	25.5
1020.77	30
1021.9	26.5
1023.03	25
1024.16	29
1025.29	26
1026.42	25.5
1027.54	24
1028.67	22.5
1029.8	25
1030.93	23
1032.06	20.5
1033.18	28
1034.31	26
1035.44	24
1036.56	24
1037.69	23
1038.82	26.5
1039.94	30
1041.07	25
1042.2	24
1043.32	29
1044.45	30
1045.57	28
1046.7	21.5
1047.82	27
1048.95	25.5
1050.07	25
1051.2	27.5
1052.32	28.5
1053.45	25.5
1054.57	28
1055.69	27
1056.82	22
1057.94	23.5
1059.06	26
1060.19	26.5
1061.31	25
1062.43	26.5
1063.55	21
1064.68	25.5
1065.8	22.5
1066.92	26.5
1068.04	23.5
1069.16	28
1070.28	25.5
1071.41	26.5
1072.53	26
1073.65	27.5
1074.77	27.5
1075.89	26.5
1077.01	24.5
1078.13	25
1079.25	26
1080.37	27
1081.49	28
1082.61	24.5
1083.73	23
1084.85	29
1085.96	27
1087.08	25.5
1088.2	19.5
1089.32	27.5
1090.44	25.5
1091.56	27
1092.67	24
1093.79	22
1094.91	26
1096.03	23.5
1097.14	26
1098.26	23.5
1099.38	25.5
1100.49	26
1101.61	26.5
1102.73	26.5
1103.84	24.5
1104.96	27
1106.07	26
1107.19	23.5
1108.3	22.5
1109.42	19.5
1110.53	26.5
1111.65	28
1112.76	25.5
1113.88	25.5
1114.99	23.5
1116.1	27
1117.22	26
1118.33	25
1119.44	28
1120.56	25.5
1121.67	25
1122.78	25.5
1123.9	22
1125.01	28
1126.12	29
1127.23	22.5
1128.34	24
1129.46	25
1130.57	27
1131.68	23
1132.79	24
1133.9	29.5
1135.01	21.5
1136.12	24
1137.23	28.5
1138.34	30
1139.45	22
1140.56	29
1141.67	23
1142.78	24
1143.89	24
1145	28.5
1146.11	24.5
1147.22	22.5
1148.33	25
1149.44	27.5
1150.54	25
1151.65	22
1152.76	27.5
1153.87	24
1154.97	26.5
1156.08	25.5
1157.19	22
1158.3	28
1159.4	24
1160.51	22
1161.62	25
1162.72	24.5
1163.83	26
1164.93	22
1166.04	25.5
1167.15	24.5
1168.25	25.5
1169.36	26
1170.46	25.5
1171.57	23
1172.67	28
1173.78	24
1174.88	26.5
1175.98	26.5
1177.09	22.5
1178.19	24.5
1179.3	24
1180.4	22
1181.5	24
1182.61	25
1183.71	25
1184.81	22
1185.91	28.5
1187.02	25
1188.12	23
1189.22	24
1190.32	23
1191.42	21.5
1192.53	27.5
1193.63	27
1194.73	23.4938
1195.83	24.0002
1196.93	24.5755
1198.03	23.1441
1199.13	26.8954
1200.23	25.9081
1201.33	24.3235
1202.43	22.0652
1203.53	24.065
1204.63	24.1413
1205.73	23.0697
1206.83	23.5421
1207.93	21.9837
1209.02	24.6194
1210.12	22.5691
1211.22	24.2138
1212.32	22.8758
1213.42	24.3643
1214.52	22.4883
1215.61	24.1495
1216.71	25.8086
1217.81	22.4692
1218.91	25.5357
1220	20.243
1221.1	25.7452
1222.2	21.5545
1223.29	25.8958
1224.39	24.3052
1225.49	24.4867
1226.58	26.0309
1227.68	25.5729
1228.77	21.7412
1229.87	25.0474
1230.96	24.1076
1232.06	20.9286
1233.15	21.886
1234.25	22.0631
1235.34	22.7282
1236.44	23.741
1237.53	26.9916
1238.63	28.2287
1239.72	22.964
1240.81	23.9016
1241.91	23.0986
1243	24.8272
1244.09	26.9642
1245.19	24.3424
1246.28	22.9625
1247.37	23.4717
1248.46	25.2377
1249.56	22.8048
1250.65	24.9682
1251.74	24.2596
1252.83	23.4662
1253.92	25.8752
1255.01	22.9668
1256.11	22.4862
1257.2	22.8688
1258.29	23.5259
1259.38	22.907
1260.47	22.5
1261.56	25.5112
1262.65	25.8109
1263.74	24.0902
1264.83	23.2236
1265.92	25.6867
1267.01	24.4669
1268.1	24.6422
1269.19	24.6329
1270.27	21.7644
1271.36	26.2243
1272.45	24.4636
1273.54	25.8209
1274.63	25.5271
1275.72	23.9056
1276.8	25.6419
1277.89	21.7414
1278.98	22.426
1280.07	23.3083
1281.15	24.4227
1282.24	24.7816
1283.33	27.5126
1284.41	25.6981
1285.5	22.794
1286.59	22.5388
1287.67	23.444
1288.76	22.5513
1289.84	24.17
1290.93	24.0903
1292.01	25.2368
1293.1	25.7573
1294.19	23.9838
1295.27	24.5014
1296.35	25.4311
1297.44	25.5625
1298.52	25.4636
1299.61	22.1194
1300.69	20.5478
1301.78	21.7056
1302.86	25.0306
1303.94	25.564
1305.03	23.2923
1306.11	24.3334
1306.4	25
1307.49	22.5
1308.57	27
1309.66	24
1310.75	24
1311.84	26
1312.92	23
1314.01	25
1315.1	22
1316.19	21.5
1317.27	25
1318.36	26
1319.45	23.5
1320.53	22
1321.62	22
1322.7	22
1323.79	26.5
1324.88	28
1325.96	24.5
1327.05	27
1328.13	22
1329.21	24
1330.3	25
1331.38	23
1332.47	23.5
1333.55	22.5
1334.64	26.5
1335.72	24
1336.8	24
1337.89	21.5
1338.97	26.5
1340.05	24
1341.14	27
1342.22	25.5
1343.3	24.5
1344.39	22.5
1345.47	24.5
1346.55	25
1347.63	24
1348.71	24
1349.79	24
1350.88	23.5
1351.96	24
1353.04	25.5
1354.12	23
1355.2	23
1356.28	25.5
1357.36	23.5
1358.44	27
1359.52	22
1360.6	21.5
1361.68	25.5
1362.76	29
1363.84	23.5
1364.92	22
1366	26.5
1367.08	26
1368.16	24
1369.23	24
1370.31	25
1371.39	25
1372.47	27.5
1373.55	24
1374.62	25.5
1375.7	22
1376.78	24.5
1377.85	26
1378.93	28
1380.01	26.5
1381.09	27.5
1382.16	25
1383.24	23
1384.31	22.5
1385.39	24.5
1386.47	27.5
1387.54	26.5
1388.62	25.5
1389.69	27.5
1390.77	24.5
1391.84	28.5
1392.92	29
1393.99	22.5
1395.06	26.5
1396.14	24.5
1397.21	21.5
1398.29	28
1399.36	26.5
1400.43	25.5
1401.51	29
1402.58	29
1403.65	27
1404.73	29.5
1405.8	22
1406.87	27
1407.94	28
1409.02	28.5
1410.09	27
1411.16	28
1412.23	32.5
1413.3	32
1414.37	32.5
1415.45	25
1416.52	27
1417.59	29.5
1418.66	27
1419.73	20.5
1420.8	28
1421.87	27
1422.94	27.5
1424.01	21
1425.08	28
1426.15	26
1427.22	29.5
1428.29	23
1429.35	25.5
1430.42	29
1431.49	25
1432.56	25
1433.63	26.5
1434.7	25.5
1435.77	30
1436.83	31
1437.9	28.5
1438.97	26
1440.04	28.5
1441.1	29.5
1442.17	26
1443.24	26
1444.3	24.5
1445.37	27
1446.44	23
1447.5	23.5
1448.57	25
1449.63	25
1450.7	27
1451.76	26.5
1452.83	26
1453.89	27.5
1454.96	29
1456.02	23.5
1457.09	25.5
1458.15	25.5
1459.22	24.5
1460.28	22.5
1461.34	27
1462.41	27.5
1463.47	24.5
1464.54	26.5
1465.6	24.5
1466.66	22
1467.72	26
1468.79	24.5
1469.85	24
1470.91	25
1471.97	25
1473.04	25
1474.1	23.5
1475.16	24.5
1476.22	24.5
1477.28	25
1478.34	29
1479.4	28
1480.47	28
1481.53	23
1482.59	25.5
1483.65	25
1484.71	23.5
1485.77	23.5
1486.83	24
1487.89	27
1488.95	25
1490.01	26.5
1491.07	25.5
1492.12	24.5
1493.18	26
1494.24	26
1495.3	24.5
1496.36	27
1497.42	27
1498.47	25.5
1499.53	25
1500.59	26
1501.65	25.5
1502.7	24
1503.76	27.5
1504.82	24
1505.88	26.5
1506.93	25.5
1507.99	21
1509.05	24
1510.1	30
1511.16	25
1512.21	21
1513.27	26
1514.32	26
1515.38	21
1516.43	28
1517.49	26.5
1518.54	23
1519.6	20
1520.65	25
1521.71	23.5
1522.76	23.5
1523.82	24
1524.87	28.5
1525.92	21.5
1526.98	25
1528.03	25.5
1529.08	29
1530.14	26
1531.19	31
1532.24	27
1533.3	24
1534.35	25
1535.4	25
1536.45	28.5
1537.5	21.5
1538.56	27.5
1539.61	25
1540.66	31
1541.71	23
1542.76	23
1543.81	21
1544.86	24.5
1545.91	27
1546.96	19
1548.01	25
1549.06	28
1550.11	24
1551.16	25
1552.21	23
1553.26	27
1554.31	26
1555.36	24
1556.41	25
1557.46	22.5
1558.51	29
1559.55	25
1560.6	28
1561.65	30
1562.7	24
1563.75	26
1564.79	27.5
1565.84	26
1566.89	21.5
1567.94	28
1568.98	24
1570.03	26
1571.07	26.5
1572.12	23
1573.17	23
1574.21	22
1575.26	26.5
1576.31	28.5
1577.35	25.5
1578.4	23
1579.44	26
1580.49	23
1581.53	27
1582.58	25
1583.62	27
1584.67	22.5
1585.71	26.5
1586.75	27
1587.8	22.5
1588.84	28
1589.89	27.5
1590.93	27
1591.97	22
1593.02	26.5
1594.06	22
1595.1	25.5
1596.14	22.5
1597.19	26
1598.23	26.5
1599.27	26.5
1600.31	26.5
1601.35	24.5
1602.4	30
1603.44	28.5
1604.48	25
1605.52	26.5
1606.56	26.5
1607.6	24
1608.64	24
1609.68	24
1610.72	23
1611.76	27
1612.8	25
1613.84	27
1614.88	23
1615.92	24.5
1616.96	24.5
1618	25
1619.04	21
1620.08	27
1621.12	25.5
1622.16	26
1623.19	24.5
1624.23	29
1625.27	28
1626.31	26
1627.35	24
1628.38	26.5
1629.42	22
1630.46	26
1631.5	26.5
1632.53	22.5
1633.57	24
1634.61	24.5
1635.64	25
1636.68	25
1637.71	27
1638.75	24
1639.79	28
1640.82	22
1641.86	27.5
1642.89	25
1643.93	27
1644.96	25
1646	23.5
1647.03	29
1648.07	23
1649.1	25.5
1650.14	27
1651.17	23
1652.2	27.5
1653.24	27
1654.27	23
1655.3	25.5
1656.34	25
1657.37	27
1658.4	28
1659.44	22
1660.47	25.5
1661.5	24.5
1662.53	26
1663.57	22.5
1664.6	27
1665.63	27
1666.66	26
1667.69	24.5
1668.72	23
1669.75	27.5
1670.79	27
1671.82	25
1672.85	28
1673.88	22
1674.91	23
1675.94	26.5
1676.97	24
1678	19
1679.03	22.5
1680.06	27.5
1681.09	25.5
1682.11	27
1683.14	25.5
1684.17	27.5
1685.2	27
1686.23	25.5
1687.26	24
1688.29	29
1689.32	29.5
1690.34	22
1691.37	23
1692.4	25
1693.43	23.5
1694.45	23
1695.48	25
1696.51	25
1697.53	24.5
1698.56	23
1699.59	26
1700.61	26
1701.64	27
1702.66	25.5
1703.69	25
1704.72	22.5
1705.74	24.5
1706.77	27
1707.79	25
1708.82	27.5
1709.84	24.5
1710.87	27
1711.89	22
1712.92	27
1713.94	24
1714.96	25
1715.99	28
1717.01	25
1718.04	27
1719.06	27
1720.08	24
1721.11	27
1722.13	23
1723.15	23
1724.17	26
1725.2	27
1726.22	28.5
1727.24	22.5
1728.26	25
1729.28	24.5
1730.31	27.5
1731.33	28
1732.35	26
1733.37	21
1734.39	24.5
1735.41	21
1736.43	28.5
1737.45	23.5
1738.47	27.5
1739.49	22
1740.51	25
1741.53	26.5
1742.55	25
1743.57	22
1744.59	29
1745.61	24.5
1746.63	22.5
1747.65	26
1748.67	26.5
1749.69	29
1750.71	24.5
1751.72	24.5
1752.74	21.5
1753.76	21.5
1754.78	30
1755.8	26.5
1756.81	30
1757.83	24.5
1758.85	23.5
1759.86	26.5
1760.88	28.5
1761.9	24
1762.91	20
1763.93	27
1764.95	26
1765.96	24.5
1766.98	26.5
1768	26.5
1769.01	28
1770.03	30
1771.04	22.5
1772.06	26
1773.07	27.5
1774.09	28.5
1775.1	20.5
1776.12	26.5
1777.13	22
1778.14	25
1779.16	24.5
1780.17	24
1781.19	25.5
1782.2	26
1783.21	22
1784.23	26.5
1785.24	23.5
1786.25	23
1787.27	26
1788.28	24
1789.29	28
1790.3	24
1791.32	23.5
1792.33	23
1793.34	23
1794.35	26.5
1795.36	28.5
1796.37	27
1797.38	23
1798.4	26.5
1799.41	23
1800.42	24
1801.43	28
1802.44	25
1803.45	18.5
1804.46	29.5
1805.47	22.5
1806.48	28
1807.49	26
1808.5	25.5
1809.51	19.5
1810.52	24
1811.53	28
1812.53	24
1813.54	25
1814.55	26
1815.56	24.5
1816.57	25
1817.58	26.5
1818.58	23.5
1819.59	26.5
1820.6	24.5
1821.61	26
1822.61	26.5
1823.62	26
1824.63	24.5
1825.64	21.5
1826.64	25
1827.65	29
1828.66	23.5
1829.66	19
1830.67	22
1831.67	24
1832.68	19.5
1833.68	21
1834.69	19.5
1835.7	26.5
1836.7	26
1837.71	22
1838.71	21.5
1839.71	17
1840.72	25
1841.72	24.5
1842.73	21
1843.73	21.5
1844.74	26
1845.74	25
1846.74	25.5
1847.75	25
1848.75	27.5
1849.75	25
1850.76	24
1851.76	24.5
1852.76	26
1853.76	25.5
1854.77	28
1855.77	28
1856.77	25.5
1857.77	27.5
1858.77	23.5
1859.78	23
1860.78	22
1861.78	22
1862.78	29
1863.78	22
1864.78	28
1865.78	23.5
1866.78	23.5
1867.78	26
1868.78	24.5
1869.78	25
1870.78	22
1871.78	24
1872.78	26.5
1873.78	24
1874.78	24.5
1875.78	24.5
1876.78	24
1877.78	24
1878.78	25
1879.77	23.5
1880.77	25
1881.77	26
1882.77	21.5
1883.77	27
1884.76	26
1885.76	26
1886.76	27
1887.76	26.5
1888.75	26
1889.75	25
1890.75	25.5
1891.74	24
1892.74	24.5
1893.74	23.5
1894.73	24.5
1895.73	24
1896.72	22.5
1897.72	22.5
1898.72	24.5
1899.71	25.5
1900.71	22
1901.7	25
1902.7	21.5
1903.69	23.5
1904.69	28
1905.68	22
1906.67	27
1907.67	22.5
1908.66	21
1909.66	23
1910.65	23
1911.64	23
1912.64	21
1913.63	22
1914.62	26.5
1915.62	21.5
1916.61	22
1917.6	23
1918.59	26
1919.59	25
1920.58	24
1921.57	22.5
1922.56	24
1923.55	24.5
1924.55	25.5
1925.54	25
1926.53	27
1927.52	26.5
1928.51	26
1929.5	23.5
1930.49	28
1931.48	23
1932.47	22
1933.46	24.5
1934.45	23.5
1935.44	22
1936.43	19.5
1937.42	25
1938.41	25
1939.4	26
1940.39	26
1941.38	25
1942.37	25.5
1943.36	25
1944.34	22.5
1945.33	24
1946.32	24.5
1947.31	22.5
1948.3	24
1949.28	25.5
1950.27	24
1951.26	23
1952.25	20.5
1953.23	25.5
1954.22	28.5
1955.21	21
1956.2	26
1957.18	25.5
1958.17	28
1959.15	27.5
1960.14	19
1961.13	24.5
1962.11	16
1963.1	19.5
1964.08	27
1965.07	21
1966.05	25.5
1967.04	23.5
1968.02	24
1969.01	25
1969.99	22
1970.98	27
1971.96	24.5
1972.94	28
1973.93	24
1974.91	21.5
1975.9	27
1976.88	27
1977.86	26
1978.85	23.5
1979.83	25.5
1980.81	25
1981.8	26.5
1982.78	23
1983.76	24
1984.74	25
1985.72	25
1986.71	23.5
1987.69	22.5
1988.67	19
1989.65	25.5
1990.63	24
1991.61	23
1992.6	24
1993.58	22
1994.56	25
1995.54	21
1996.52	26
1997.5	26
1998.48	22
1999.46	26
2000.44	27
2001.42	24
2002.4	22.5
2003.38	22.5
2004.36	23
2005.34	23
2006.32	24.5
2007.29	24.5
2008.27	24
2009.25	27
2010.23	24.5
2011.21	24
2012.19	23.5
2013.16	28.5
2014.14	20.5
2015.12	21.5
2016.1	23
2017.07	25.5
2018.05	20.5
2019.03	26.5
2020	25
2020.98	22.5
2021.96	27
2022.93	23.5
2023.91	22
2024.89	21
2025.86	22
2026.84	24.5
2027.81	21.5
2028.79	21
2029.77	23
2030.74	23
2031.72	24.5
2032.69	24.5
2033.67	22.5
2034.64	23
2035.61	27
2036.59	27
2037.56	25.5
2038.54	23.5
2039.51	19.5
2040.48	20
2041.46	26.5
2042.43	25
2043.41	24
2044.38	23.5
2045.35	22
2046.32	23
2047.3	25.5
2048.27	24.5
2049.24	21.5
2050.21	26
2051.19	26
2052.16	22.5
2053.13	22
2054.1	26.5
2055.07	24.5
2056.04	20.5
2057.02	25
2057.99	22.5
2058.96	23
2059.93	22.5
2060.9	22.5
2061.87	21
2062.84	23
2063.81	21
2064.78	23.5
2065.75	23
2066.72	21
2067.69	22
2068.66	19.5
2069.63	22.5
2070.6	22
2071.57	23
2072.53	17
2073.5	26.5
2074.47	23
2075.44	24.5
2076.41	19
2077.38	23
2078.34	23.5
2079.31	22.5
2080.28	22.5
2081.25	24
2082.21	22.5
2083.18	24.5
2084.15	23
2085.12	27
2086.08	25
2087.05	24.5
2088.02	22
2088.98	26
2089.95	24.5
2090.91	23.5
2091.88	25.5
2092.85	25.5
2093.81	24
2094.78	23.5
2095.74	23.5
2096.71	24
2097.67	24.5
2098.64	22
2099.6	24.5
2100.57	24.5
2101.53	22
2102.5	25
2103.46	24
2104.42	26.5
2105.39	22
2106.35	26.5
2107.31	24.5
2108.28	28
2109.24	25.5
2110.2	25
2111.17	25
2112.13	21.5
2113.09	22
2114.06	21
2115.02	23.5
2115.98	24.5
2116.94	24
2117.9	20.5
2118.86	24
2119.83	23
2120.79	20.5
2121.75	22
2122.71	24.5
2123.67	23.5
2124.63	21.5
2125.59	21
2126.55	23
2127.51	26
2128.48	20
2129.43	21
2130.4	23
2131.35	21.5
2132.31	20.5
2133.27	24.5
2134.23	21
2135.19	24
2136.15	23.5
2137.11	19
2138.07	25
2139.03	23
2139.99	21.5
2140.95	20
2141.9	26.5
2142.86	27.4779
2143.82	20.5043
2144.78	22.0056
2145.74	23.0389
2146.69	23.0655
2147.65	23.4494
2148.61	23.1903
2149.56	22.8616
2150.52	26.9244
2151.48	21.1159
2152.44	23.0516
2153.39	26.7074
2154.35	22.4264
2155.3	22.6692
2156.26	21.1899
2157.22	23.4145
2158.17	22.7687
2159.13	21.7105
2160.08	23.4528
2161.04	26.9124
2161.99	22.7378
2162.95	23.7281
2163.9	24.6302
2164.86	24.7941
2165.81	24.2214
2166.77	21.2058
2167.72	22.8167
2168.68	22.2214
2169.63	22.2858
2170.58	25.0846
2171.54	24.8155
2172.49	21.5632
2173.44	20.7964
2174.4	21.4657
2175.35	20.8704
2176.3	19.8517
2177.26	22.2951
2178.21	22.4891
2179.16	21.4367
2180.11	23.7073
2181.07	24.1131
2182.02	22.8841
2182.97	23.2682
2183.92	23.3836
2184.88	21.8288
2185.83	21.9665
2186.78	22.6456
2187.73	21.7625
2188.68	20.6719
2189.63	22.6685
2190.58	22.5438
2191.53	21.3175
2192.48	24.182
2193.43	22.9223
2194.38	21.9339
2195.33	21.7333
2196.28	23.7341
2197.23	21.6785
2198.18	24.2988
2199.13	24.5548
2200.08	23.0003
2201.03	22.2895
2201.98	21.4112
2202.93	21.767
2203.88	19.8264
2204.83	20.8007
2205.78	23.7706
2206.72	24.6504
2207.67	22.3828
2208.62	23.6665
2209.57	23.4733
2210.52	22.6519
2211.46	22.5922
2212.41	23.186
2213.36	24.3935
2214.31	24.0655
2215.25	22.4874
2216.2	23.9283
2217.15	23.2145
2218.09	22.5714
2219.04	22.5461
2219.99	20.525
2220.93	22.872
2221.88	23.9978
2222.83	21.5786
2223.77	23.9828
2224.72	22.6523
2225.66	21.3104
2226.61	22.7728
2227.55	24.4994
2228.5	21.6695
2229.44	21.1273
2230.39	25.1661
2231.33	24.2515
2232.28	22.4473
2233.22	24.7265
2234.17	22.4908
2235.11	22.2937
2236.05	20.8927
2237	21.8919
2237.94	22.8208
2238.88	21.4804
2239.83	23.7334
2240.04	24.5
2240.98	22
2241.93	20
2242.88	20.5
2243.83	24
2244.78	20.5
2245.72	25.5
2246.67	23
2247.62	26
2248.56	21
2249.51	24
2250.46	21.5
2251.4	20.5
2252.35	24.5
2253.3	19.5
2254.24	23.5
2255.19	24.5
2256.14	23
2257.08	20
2258.03	22
2258.97	22
2259.92	21.5
2260.86	25.5
2261.81	19.5
2262.75	21
2263.7	22
2264.64	24
2265.59	23.5
2266.53	24
2267.48	23
2268.42	23.5
2269.36	25
2270.31	23.5
2271.25	20
2272.19	21.5
2273.14	22
2274.08	22.5
2275.02	25
2275.97	19
2276.91	16.5
2277.85	25
2278.8	25.5
2279.74	21
2280.68	24
2281.62	20
2282.56	20
2283.51	24
2284.45	24
2285.39	19.5
2286.33	24
2287.27	22.5
2288.21	22.5
2289.15	20
2290.09	25.5
2291.04	22
2291.98	22.5
2292.92	21.5
2293.86	20.5
2294.8	20
2295.74	23
2296.68	23.5
2297.62	24.5
2298.56	21
2299.5	21
2300.44	21.5
2301.37	24
2302.31	21.5
2303.25	20.5
2304.19	24.5
2305.13	25
2306.07	23.5
2307.01	21
2307.94	24.5
2308.88	21
2309.82	23
2310.76	25
2311.7	18
2312.63	22
2313.57	23.5
2314.51	22.5
2315.44	23
2316.38	18
2317.32	23.5
2318.26	22
2319.19	25
2320.13	22
2321.06	24.5
2322	23
2322.94	21
2323.87	22
2324.81	22.5
2325.74	23.5
2326.68	22
2327.61	23.5
2328.55	26
2329.48	22
2330.42	22.5
2331.35	23
2332.29	27.5
2333.22	24
2334.16	26.5
2335.09	23
2336.02	22
2336.96	19
2337.89	20
2338.83	25
2339.76	25
2340.69	21.5
2341.63	23
2342.56	22.5
2343.49	25.5
2344.42	23.5
2345.36	26.5
2346.29	24
2347.22	25
2348.15	25.5
2349.09	21.5
2350.02	30.5
2350.95	27
2351.88	25.5
2352.81	23.5
2353.74	22.5
2354.68	21
2355.61	25
2356.54	22
2357.47	24.5
2358.4	24
2359.33	24
2360.26	23
2361.19	23.5
2362.12	23
2363.05	24.5
2363.98	22
2364.91	23.5
2365.84	22.5
2366.77	25
2367.7	20
2368.63	25
2369.56	25.5
2370.49	20.5
2371.41	23
2372.34	23
2373.27	22
2374.2	25
2375.13	22.5
2376.06	24.5
2376.98	21.5
2377.91	24
2378.84	25
2379.77	24.5
2380.69	22.5
2381.62	22.5
2382.55	23
2383.47	25.5
2384.4	19.5
2385.33	23
2386.25	23
2387.18	25
2388.11	22
2389.03	25
2389.96	23
2390.89	17.5
2391.81	25
2392.74	22.5
2393.66	24
2394.59	19
2395.51	23
2396.44	22
2397.36	23.5
2398.29	21
2399.21	28
2400.14	25
2401.06	24.5
2401.99	20
2402.91	23
2403.83	24.5
2404.76	27.5
2405.68	23.5
2406.6	25
2407.53	25
2408.45	27.5
2409.37	26.5
2410.3	23
2411.22	22
2412.14	23
2413.06	27
2413.99	23.5
2414.91	24
2415.83	24
2416.75	23.5
2417.68	22.5
2418.6	20
2419.52	22
2420.44	25
2421.36	26.5
2422.28	22
2423.2	22
2424.12	25.5
2425.05	25
2425.97	24
2426.89	25
2427.81	23
2428.73	21
2429.65	26
2430.57	25
2431.49	26.5
2432.41	24
2433.33	24.5
2434.25	25.5
2435.17	26
2436.08	27.5
2437	27
2437.92	25
2438.84	24
2439.76	21
2440.68	28
2441.6	23.5
2442.51	26
2443.43	27
2444.35	24
2445.27	22
2446.19	20.5
2447.1	25.5
2448.02	25
2448.94	24.5
2449.85	24
2450.77	23
2451.69	28
2452.61	23.5
2453.52	23.5
2454.44	23.5
2455.35	26
2456.27	23.5
2457.19	23
2458.1	24
2459.02	22.5
2459.94	23
2460.85	24
2461.77	22.5
2462.68	24
2463.6	25.5
2464.51	25
2465.43	24
2466.34	22
2467.25	20.5
2468.17	30
2469.08	22
2470	21.5
2470.91	21.5
2471.83	24
2472.74	19
2473.65	27
2474.57	24
2475.48	22
2476.39	24
2477.31	23.5
2478.22	24.5
2479.13	26.5
2480.04	24
2480.96	22
2481.87	22
2482.78	28.5
2483.69	24
2484.6	25
2485.52	25
2486.43	23.5
2487.34	24
2488.25	27
2489.16	27
2490.07	23
2490.99	27.5
2491.9	22.5
2492.81	25
2493.72	22
2494.63	27
2495.54	19
2496.45	29
2497.36	24.5
2498.27	28
2499.18	23
2500.09	28
2501	25.5
2501.91	24
2502.82	20
2503.73	24
2504.63	26
2505.54	25.5
2506.45	23
2507.36	25.5
2508.27	24.5
2509.18	22
2510.09	26.5
2510.99	25
2511.9	21.5
2512.81	24
2513.72	22
2514.62	20.5
2515.53	23
2516.44	28.5
2517.35	23.5
2518.25	22.5
2519.16	26
2520.07	22.5
2520.97	22.5
2521.88	24
2522.79	24
2523.69	25
2524.6	26.5
2525.51	26.5
2526.41	28.5
2527.32	23
2528.22	26.5
2529.13	28
2530.03	21
2530.94	22.5
2531.84	26
2532.75	27.5
2533.65	23.5
2534.56	24.5
2535.46	23
2536.37	26.5
2537.27	25.5
2538.17	21
2539.08	22.5
2539.98	24.5
2540.89	22
2541.79	23.5
2542.69	25.5
2543.6	21.5
2544.5	25.5
2545.4	24.5
2546.31	20
2547.21	22
2548.11	24
2549.01	25
2549.92	25.5
2550.82	22.5
2551.72	24
2552.62	25.5
2553.52	26
2554.42	25
2555.33	25
2556.23	23
2557.13	20
2558.03	26
2558.93	24
2559.83	23
2560.73	25.5
2561.63	26
2562.53	24.5
2563.43	25
2564.33	25
2565.24	28.5
2566.13	27.5
2567.04	24.5
2567.93	23.5
2568.83	23
2569.73	25
2570.63	30
2571.53	26
2572.43	27
2573.33	26.5
2574.23	26.5
2575.13	20
2576.03	27
2576.92	23
2577.82	25.5
2578.72	25
2579.62	24
2580.52	23
2581.41	25
2582.31	24
2583.21	24.5
2584.11	28.5
2585	26.5
2585.9	24
2586.8	27.5
2587.69	26
2588.59	23
2589.49	26
2590.38	23.5
2591.28	23
2592.18	27
2593.07	25.5
2593.97	22.5
2594.86	23
2595.76	25
2596.66	24
2597.55	25.5
2598.45	24
2599.34	25.5
2600.24	24
2601.13	22
2602.03	23
2602.92	22
2603.81	23
2604.71	25
2605.6	24.5
2606.5	27.5
2607.39	22.5
2608.28	22
2609.18	24
2610.07	23
2610.97	22.5
2611.86	29
2612.75	22
2613.64	27
2614.54	27
2615.43	25
2616.32	27.5
2617.22	24
2618.11	26.5
2619	20
2619.89	21
2620.78	22.5
2621.68	21.5
2622.57	24
2623.46	22.5
2624.35	23
2625.24	28.5
2626.13	24
2627.02	24.5
2627.91	25
2628.81	28.5
2629.7	23.5
2630.59	19.5
2631.48	26.5
2632.37	24
2633.26	26
2634.15	23.5
2635.04	22.5
2635.93	25
2636.82	24
2637.71	26
2638.59	27.5
2639.48	25
2640.37	25.5
2641.26	26.5
2642.15	26.5
2643.04	23
2643.93	21.5
2644.82	22
2645.71	21
2646.59	25.5
2647.48	20
2648.37	24
2649.26	24.5
2650.15	26.5
2651.03	23
2651.92	24
2652.81	26
2653.69	27.5
2654.58	24.5
2655.47	22
2656.35	25
2657.24	19.5
2658.13	21.5
2659.01	25
2659.9	23
2660.79	20.5
2661.67	27.5
2662.56	20.5
2663.44	25.5
2664.33	25
2665.22	25.5
2666.1	23.5
2666.99	25
2667.87	24
2668.76	23
2669.64	24
2670.52	26
2671.41	23
2672.29	24
2673.18	20.5
2674.06	24
2674.95	23.5
2675.83	25.5
2676.71	22
2677.6	23
2678.48	25.5
2679.36	25.5
2680.25	22
2681.13	26
2682.01	25.5
2682.9	24
2683.78	22.5
2684.66	20
2685.55	24.5
2686.43	26.5
2687.31	24
2688.19	25
2689.07	27
2689.96	27.5
2690.84	25.5
2691.72	22.5
2692.6	26
2693.48	26
2694.36	23.5
2695.24	22.5
2696.12	25
2697	28
2697.89	22
2698.77	24
2699.65	20.5
2700.53	22.5
2701.41	23
2702.29	24
2703.17	22.5
2704.05	23.5
2704.93	24
2705.81	27.5
2706.69	23
2707.57	19.5
2708.44	21
2709.32	23
2710.2	25.5
2711.08	26
2711.96	25.5
2712.84	24
2713.72	26.5
2714.59	19
2715.47	23
2716.35	22
2717.23	25.5
2718.11	25.5
2718.98	25.5
2719.86	29
2720.74	25.5
2721.62	22
2722.49	23
2723.37	23.5
2724.25	25
2725.12	27
2726	22.5
2726.88	25
2727.75	27
2728.63	26
2729.51	26.5
2730.38	24
2731.26	22
2732.13	27
2733.01	26
2733.88	23
2734.76	23
2735.63	25
2736.51	25
2737.38	21.5
2738.26	21.5
2739.13	27
2740.01	25
2740.88	25
2741.76	23
2742.63	24.5
2743.5	23
2744.38	23.5
2745.25	22.5
2746.13	22.5
2747	26
2747.87	27
2748.75	23
2749.62	24
2750.49	21
2751.36	24
2752.24	21.5
2753.11	28
2753.98	25
2754.86	26.5
2755.73	22
2756.6	24.5
2757.47	25.5
2758.34	24.5
2759.22	22
2760.09	24
2760.96	28
2761.83	21.5
2762.7	24
2763.57	21
2764.44	29
2765.31	29
2766.18	23
2767.06	24
2767.93	26.5
2768.8	23.5
2769.67	24.5
2770.54	18
2771.41	24.5
2772.28	24
2773.15	24.5
2774.02	25.5
2774.89	26
2775.75	23
2776.62	19
2777.49	21
2778.36	23
2779.23	25.5
2780.1	21
2780.97	23
2781.84	25
2782.71	25
2783.57	24
2784.44	23
2785.31	24
2786.18	26
2787.04	24
2787.91	22
2788.78	23
2789.65	20
2790.51	25
2791.38	25
2792.25	21.5
2793.12	26.5
2793.98	26.5
2794.85	27.5
2795.72	22
2796.58	21.5
2797.45	27
2798.31	24.5
2799.18	24.5
2800.05	26.5
2800.91	27.5
2801.78	28.5
2802.64	22
2803.51	26.5
2804.37	25
2805.24	22.5
2806.1	27
2806.97	27.5
2807.83	21
2808.7	22
2809.56	31
2810.43	27
2811.29	24
2812.15	26
2813.02	26.5
2813.88	28
2814.75	26.5
2815.61	27.5
2816.47	21.5
2817.34	27
2818.2	21
2819.06	26
2819.92	21.5
2820.79	26
2821.65	26
2822.51	22.5
2823.37	27
2824.24	22.5
2825.1	27
2825.96	26.5
2826.82	25.5
2827.69	24.5
2828.55	24
2829.41	22
2830.27	20
2831.13	23
2831.99	21.5
2832.85	25.5
2833.71	22
2834.58	25.5
2835.44	24
2836.3	22
2837.16	25
2838.02	28.5
2838.88	23.5
2839.74	19.5
2840.6	24.5
2841.46	24.5
2842.32	23
2843.18	24
2844.04	26.5
2844.9	23.5
2845.75	23.5
2846.61	27
2847.47	27
2848.33	23
2849.19	21.5
2850.05	25
2850.91	21
2851.77	28
2852.62	24
2853.48	23
2854.34	24.5
2855.2	28
2856.06	25.5
2856.91	22.5
2857.77	24
2858.63	22.5
2859.48	25.5
2860.34	26.5
2861.2	24.5
2862.06	26.5
2862.91	23.5
2863.77	27
2864.63	25
2865.48	25
2866.34	26
2867.19	26.5
2868.05	26.5
2868.91	27.5
2869.76	27
2870.62	30
2871.47	25.5
2872.33	29
2873.18	26
2874.04	29.5
2874.89	29
2875.75	25
2876.6	28
2877.46	30.5
2878.31	25
2879.17	28
2880.02	26.5
2880.88	28
2881.73	30.5
2882.58	27
2883.44	28.5
2884.29	32
2885.14	31
2886	30
2886.85	32.5
2887.7	29.5
2888.56	28.5
2889.41	32.5
2890.26	30
2891.12	33
2891.97	31
2892.82	35
2893.67	32.5
2894.52	35
2895.38	37.5
2896.23	36
2897.08	38
2897.93	40
2898.78	43.5
2899.64	42.5
2900.49	45.5
2901.34	47
2902.19	49.5
2903.04	49
2903.89	51.5
2904.74	51.5
2905.59	49
2906.44	50
2907.29	55.5
2908.14	51
2908.99	48.5
2909.84	49.5
2910.69	52
2911.54	52
2912.39	41
2913.24	44.5
2914.09	39
2914.94	39.5
2915.79	39.5
2916.64	38
2917.49	37
2918.34	37.5
2919.18	32.5
2920.03	32.5
2920.88	30.5
2921.73	29.5
2922.58	28
2923.42	29.5
2924.27	29.5
2925.12	22
2925.97	26
2926.82	29.5
2927.66	24.5
2928.51	24.5
2929.36	29
2930.2	29
2931.05	27.5
2931.9	27
2932.74	32
2933.59	25.5
2934.44	28
2935.28	23
2936.13	27
2936.98	25.5
2937.82	28
2938.67	27.5
2939.51	26.5
2940.36	22
2941.2	29.5
2942.05	27
2942.9	26
2943.74	19
2944.58	26.5
2945.43	27
2946.27	27.5
2947.12	26
2947.96	26.5
2948.81	25.5
2949.65	26.5
2950.5	29.5
2951.34	26
2952.18	27
2953.03	26
2953.87	27
2954.71	28
2955.56	24.5
2956.4	28
2957.24	29
2958.09	30
2958.93	29.5
2959.77	34
2960.62	34
2961.46	28.5
2962.3	35
2963.14	37
2963.98	34.5
2964.83	36
2965.67	34
2966.51	36
2967.35	35.5
2968.19	34
2969.04	38
2969.88	33
2970.72	33
2971.56	31.9806
2972.4	27.988
2973.24	32.456
2974.08	33.3491
2974.92	29.474
2975.76	25.6225
2976.6	33.7411
2977.44	28.0376
2978.28	27.6752
2979.12	27.7192
2979.96	29.4621
2980.8	25.3883
2981.64	24.9393
2982.48	27.7411
2983.32	25.158
2984.16	28.3227
2985	28.0777
2985.84	23.28
2986.68	25.2446
2987.52	25.4674
2988.35	27.3161
2989.19	25.4654
2990.03	22.516
2990.87	22.4615
2991.71	23.6303
2992.55	23.2708
2993.38	21.4797
2994.22	20.7917
2995.06	23.2496
2995.9	27.196
2996.73	26.5263
2997.57	23.0098
2998.41	24.536
2999.25	24.2261
3000.08	24.8825
3000.92	22.6953
3001.76	24.198
3002.59	24.2385
3003.43	23.6733
3004.27	20.6254
3005.1	23.557
3005.94	23.7657
3006.78	20.773
3007.61	23.9541
3008.45	21.9284
3009.28	22.3112
3010.12	23.0389
3010.95	22.9612
3011.79	23.5064
3012.62	22.3523
3013.46	21.605
3014.29	23.8309
3015.13	21.9806
3015.96	22.7618
3016.8	24.9262
3017.63	21.4783
3018.47	22.265
3019.3	22.2038
3020.14	22.3387
3020.97	20.8476
3021.8	22.7557
3022.64	23.1012
3023.47	23.6342
3024.3	23.6917
3025.14	23.2074
3025.97	22.5232
3026.8	20.9538
3027.64	21.9051
3028.47	23.0284
3029.3	21.4263
3030.14	21.5047
3030.97	22.8549
3031.8	20.8113
3032.63	20.3704
3033.46	20.598
3034.3	22.6591
3035.13	24.2418
3035.96	24.2488
3036.79	23.1858
3037.62	20.7582
3038.46	22.2871
3039.29	23.1341
3040.12	22.4876
3040.95	22.8477
3041.78	22.6255
3042.61	23.1555
3043.44	23.1901
3044.27	21.6642
3045.1	21.9092
3045.93	22.6207
3046.76	23.719
3047.59	21.7187
3048.42	21.9878
3049.25	21.5653
3050.08	21.964
3050.91	22.979
3051.74	23.2363
3052.57	22.8856
3053.4	23.0199
3054.23	19.8977
3055.06	18.5622
3055.89	22.4818
3056.72	22.8107
3057.32	21
3058.15	22
3058.98	22
3059.82	21.5
3060.65	23
3061.48	23
3062.31	23.5
3063.15	24
3063.98	17.5
3064.81	24
3065.64	20.5
3066.48	24.5
3067.31	18
3068.14	23.5
3068.97	23
3069.8	24
3070.63	25.5
3071.47	20.5
3072.3	24
3073.13	19.5
3073.96	22.5
3074.79	25
3075.62	24.5
3076.45	25
3077.28	23.5
3078.11	21
3078.94	23.5
3079.77	18.5
3080.6	23
3081.43	23.5
3082.26	24.5
3083.09	22
3083.92	23
3084.75	26
3085.58	21
3086.41	20.5
3087.24	23
3088.07	24
3088.9	20.5
3089.73	25.5
3090.55	23.5
3091.38	25
3092.21	25.5
3093.04	20
3093.87	22
3094.7	25
3095.52	23.5
3096.35	26.5
3097.18	21.5
3098.01	23.5
3098.84	24
3099.66	19
3100.49	24.5
3101.32	27
3102.14	21
3102.97	24
3103.8	21.5
3104.62	22
3105.45	21.5
3106.28	18.5
3107.1	25.5
3107.93	24
3108.76	21.5
3109.58	22.5
3110.41	23.5
3111.23	25
3112.06	20.5
3112.89	22
3113.71	24.5
3114.54	27.5
3115.36	25
3116.19	23
3117.01	26
3117.84	19
3118.66	24
3119.49	25
3120.31	23
3121.13	23.5
3121.96	21
3122.78	24.5
3123.61	21.5
3124.43	21
3125.25	24
3126.08	23
3126.9	22
3127.73	24.5
3128.55	27.5
3129.37	23
3130.19	26
3131.02	21
3131.84	25
3132.66	22.5
3133.49	19
3134.31	22
3135.13	26.5
3135.95	23
3136.78	20
3137.6	23
3138.42	23
3139.24	28
3140.06	27
3140.88	22
3141.71	24.5
3142.53	19
3143.35	24
3144.17	21.5
3144.99	22
3145.81	22
3146.63	20.5
3147.45	20.5
3148.27	22
3149.09	25
3149.91	23
3150.73	22
3151.56	25
3152.37	26
3153.2	27.5
3154.01	20
3154.83	22
3155.65	19.5
3156.47	24.5
3157.29	22.5
3158.11	21
3158.93	24
3159.75	25
3160.57	24
3161.39	25
3162.21	24
3163.02	25
3163.84	24.5
3164.66	21
3165.48	20
3166.3	26
3167.11	19.5
3167.93	22.5
3168.75	24
3169.57	20
3170.39	23.5
3171.2	21
3172.02	25
3172.84	21
3173.65	26
3174.47	22
3175.29	21
3176.1	27
3176.92	22
3177.74	21
3178.55	22.5
3179.37	20
3180.19	23.5
3181	22
3181.82	22.5
3182.63	24
3183.45	23.5
3184.27	24
3185.08	23.5
3185.9	26.5
3186.71	25
3187.53	24.5
3188.34	20
3189.16	22
3189.97	23
3190.79	21.5
3191.6	21
3192.41	21.5
3193.23	19.5
3194.04	24
3194.86	20
3195.67	22
3196.48	20.5
3197.3	22.5
3198.11	25
3198.93	25.5
3199.74	26
3200.55	22.5
3201.36	17.5
3202.18	26.5
3202.99	24
3203.8	21
3204.62	23
3205.43	23.5
3206.24	19.5
3207.05	24.5
3207.87	23
3208.68	26
3209.49	21
3210.3	23
3211.11	25
3211.93	24
3212.74	24
3213.55	22
3214.36	22.5
3215.17	23.5
3215.98	25.5
3216.79	23.5
3217.6	24
3218.41	23
3219.22	26
3220.03	18
3220.85	27.5
3221.66	22.5
3222.47	22.5
3223.28	23.5
3224.09	21.5
3224.9	22.5
3225.71	25
3226.52	21
3227.33	19
3228.13	22
3228.94	23.5
3229.75	29.5
3230.56	26.5
3231.37	21
3232.18	26.5
3232.99	23
3233.8	24
3234.61	22
3235.41	28
3236.22	24
3237.03	25
3237.84	24
3238.65	22.5
3239.45	19.5
3240.26	25.5
3241.07	24
3241.88	20
3242.68	24
3243.49	24
3244.3	25
3245.1	26
3245.91	29
3246.72	27
3247.53	24
3248.33	23.5
3249.14	20.5
3249.95	25.5
3250.75	23.5
3251.56	21
3252.36	22.5
3253.17	26.5
3253.97	19
3254.78	24.5
3255.59	22
3256.39	21
3257.2	24
3258	24
3258.81	22.5
3259.61	20
3260.42	23.5
3261.22	24.5
3262.03	22.5
3262.83	22.5
3263.64	24.5
3264.44	23.5
3265.24	25.5
3266.05	26.5
3266.85	23.5
3267.66	25
3268.46	25.5
3269.26	21.5
3270.07	26
3270.87	19
3271.67	25.5
3272.48	26
3273.28	21.5
3274.08	24.5
3274.89	21
3275.69	24
3276.49	21.5
3277.29	20.5
3278.1	26
3278.9	19
3279.7	25.5
3280.5	22.5
3281.3	25.5
3282.11	24.5
3282.91	20
3283.71	23
3284.51	23.5
3285.31	20.5
3286.11	24.5
3286.91	22.5
3287.72	24
3288.52	23.5
3289.32	24.5
3290.12	24
3290.92	22
3291.72	24
3292.52	24.5
3293.32	23.5
3294.12	19.5
3294.92	23
3295.72	21.5
3296.52	21
3297.32	25.5
3298.12	24
3298.92	19.5
3299.72	26
3300.52	20.5
3301.32	21
3302.12	22.5
3302.92	26
3303.71	21
3304.51	26
3305.31	23.5
3306.11	23
3306.91	25.5
3307.71	24
3308.5	25
3309.3	25
3310.1	26.5
3310.9	24.5
3311.7	19
3312.49	21
3313.29	22.5
3314.09	25.5
3314.89	24.5
3315.68	19.5
3316.48	24
3317.28	22
3318.07	24.5
3318.87	25
3319.67	29.5
3320.46	19.5
3321.26	23.5
3322.06	23.5
3322.85	26
3323.65	21.5
3324.44	21
3325.24	23.5
3326.04	26
3326.83	22
3327.63	23.5
3328.42	24.5
3329.22	23
3330.01	23.5
3330.81	25.5
3331.6	28
3332.4	23
3333.19	26.5
3333.99	23.5
3334.78	24.5
3335.58	24
3336.37	20.5
3337.17	22.5
3337.96	22
3338.75	22.5
3339.55	21
3340.34	24.5
3341.13	23
3341.93	22
3342.72	27
3343.51	21.5
3344.31	19
3345.1	24
3345.89	26
3346.69	24
3347.48	27.5
3348.27	27.5
3349.06	24
3349.86	22
3350.65	22.5
3351.44	22
3352.23	24
3353.03	25.5
3353.82	22
3354.61	24.5
3355.4	24
3356.19	25
3356.98	24.5
3357.78	24
3358.57	19.5
3359.36	20
3360.15	25
3360.94	20
3361.73	23.5
3362.52	25.5
3363.31	23
3364.1	17.5
3364.89	26
3365.68	25
3366.47	21
3367.26	23
3368.05	27
3368.84	23
3369.63	25
3370.42	23.5
3371.21	21.5
3372	23
3372.79	23
3373.58	25
3374.37	24
3375.16	23.5
3375.95	23
3376.73	24
3377.52	24
3378.31	24
3379.1	25
3379.89	23.5
3380.68	26
3381.46	23
3382.25	24
3383.04	25.5
3383.83	20.5
3384.62	24
3385.4	24
3386.19	24
3386.98	25
3387.76	23
3388.55	24
3389.34	26
3390.13	24.5
3390.91	23.5
3391.7	22.5
3392.49	27
3393.27	23
3394.06	20
3394.84	23
3395.63	21.5
3396.42	24.5
3397.2	25
3397.99	21
3398.77	23.5
3399.56	25
3400.34	21.5
3401.13	25
3401.92	27.5
3402.7	27.5
3403.49	26.5
3404.27	20.5
3405.06	24
3405.84	22.5
3406.62	22.5
3407.41	24
3408.19	21.5
3408.98	20
3409.76	24
3410.55	23
3411.33	25
3412.11	22
3412.9	21
3413.68	21.5
3414.46	20
3415.25	23
3416.03	26.5
3416.81	22.5
3417.6	24
3418.38	21.5
3419.16	23
3419.95	23.5
3420.73	21
3421.51	22
3422.29	25
3423.08	27.5
3423.86	23
3424.64	22
3425.42	24.5
3426.2	22
3426.98	23.5
3427.77	21
3428.55	22
3429.33	23.5
3430.11	22
3430.89	23
3431.67	23
3432.45	18
3433.24	26
3434.02	23
3434.8	22
3435.58	26.5
3436.36	21
3437.14	22.5
3437.92	22.5
3438.7	24
3439.48	23
3440.26	22
3441.04	23.5
3441.82	23.5
3442.6	25
3443.38	22
3444.16	23.5
3444.94	22
3445.71	22
3446.49	27.5
3447.27	27
3448.05	26
3448.83	26
3449.61	22
3450.39	20.5
3451.17	24
3451.94	26
3452.72	26
3453.5	22
3454.28	23.5
3455.06	20
3455.83	22.5
3456.61	25
3457.39	23.5
3458.17	23.5
3458.94	24.5
3459.72	22.5
3460.5	23.5
3461.28	21.5
3462.05	23.5
3462.83	20.5
3463.61	23.5
3464.38	23
3465.16	22.5
3465.93	24.5
3466.71	21
3467.49	25.5
3468.26	22.5
3469.04	24
3469.82	25
3470.59	20.5
3471.37	21.5
3472.14	25
3472.92	25.5
3473.69	22.5
3474.47	25.5
3475.24	25.5
3476.02	21
3476.79	26.5
3477.57	21
3478.34	20
3479.12	25
3479.89	25
3480.67	23
3481.44	22
3482.21	23.5
3482.99	25
3483.76	25
3484.54	21.5
3485.31	24.5
3486.08	22
3486.86	28
3487.63	24
3488.4	18
3489.18	24
3489.95	25
3490.72	26
3491.5	24.5
3492.27	22
3493.04	25
3493.81	25.5
3494.59	23
3495.36	25
3496.13	22
3496.9	24
3497.67	24
3498.45	24
3499.22	20
3499.99	26.5
