#Acq. time (s)=	5
#Accumulations=	5
#Range (cm-¹)=	100...3500
#Windows=	4
#Autofocus=	Off
#AutoExposure=	Off
#Spike filter=	Multiple accum.
#Delay time (s)=	0
#Binning=	1
#Readout mode=	Signal
#DeNoise=	Off
#ICS correction=	Off
#Dark correction=	Off
#Inst. Process=	Off
#Instrument=	LabRAM HR Evol
#Detector=	Syncerity OE
#Objective=	x100_VIS
#Grating=	600 (500nm)
#ND Filter=	25%
#Laser=	633nm_Edge
#Hole=	100.021
#Range=	Visible
#Project=	verificaciones
#Sample=	a4
#Site=	lined
#Title=	bolusa4lined
#Remark=	
#Date=	09.01.2026 15:24
#Acquired=	09.01.2026 15:24:38
100.695	110
101.978	114
103.262	116.5
104.545	115
105.829	120.5
107.112	110
108.394	113.5
109.676	113
110.958	112
112.24	116.5
113.522	112.5
114.803	117
116.084	127
117.365	122
118.646	121
119.927	126
121.207	127
122.487	128
123.767	135
125.047	128
126.326	142
127.606	137
128.885	139
130.164	140
131.442	148
132.721	148
133.999	154
135.277	168.5
136.555	166
137.831	169
139.109	169
140.386	171
141.663	171.5
142.94	177
144.216	171
145.493	187
146.769	179
148.043	188
149.319	193.5
150.595	196
151.87	206
153.145	210
154.42	196
155.693	201.5
156.968	211.5
158.242	214
159.516	210.5
160.79	204
162.062	209
163.336	199
164.609	198
165.882	196.5
167.153	204
168.426	202
169.699	196.5
170.971	197
172.241	190.5
173.513	206.5
174.785	189
176.055	191
177.326	195
178.597	198
179.866	191
181.137	198
182.407	199.5
183.676	194.5
184.946	209
186.216	207
187.484	204.5
188.753	207
190.022	200
191.29	208
192.558	205
193.825	206
195.094	196.5
196.36	203.5
197.628	186
198.896	190
200.162	183.5
201.429	170
202.695	177.5
203.962	176.5
205.227	171
206.493	169
207.758	164
209.024	169
210.289	161
211.554	155
212.818	154
214.083	150
215.347	141.5
216.612	145
217.875	143
219.138	144
220.402	146
221.665	145.5
222.928	134.5
224.19	139
225.454	136
226.715	130
227.977	132.5
229.24	130
230.501	129
231.762	127.5
233.024	128
234.284	121
235.546	120.5
236.806	123
238.066	115
239.327	116
240.587	126.5
241.846	117.5
243.105	119.5
244.365	117
245.624	117
246.882	121
248.142	116.5
249.4	115.5
250.658	117.5
251.916	116.5
253.174	109
254.432	112
255.689	114.5
256.945	113
258.202	118.5
259.46	106
260.716	112
261.972	112
263.228	112
264.483	113.5
265.74	105.5
266.996	114.5
268.251	110
269.505	107.5
270.76	110.5
272.014	102
273.268	104
274.522	107.5
275.778	105.5
277.031	104
278.285	102.5
279.538	110.5
280.791	105
282.043	106
283.296	97
284.548	103
285.8	104
287.052	95
288.304	100.5
289.556	107
290.807	110
292.058	110.5
293.309	105
294.56	108
295.81	99.5
297.061	105.5
298.311	104
299.561	103
300.81	100.5
302.06	103
303.309	101
304.558	99.5
305.807	105.5
307.056	106.5
308.305	103
309.551	109.5
310.8	107
312.047	100.5
313.295	106
314.543	98
315.79	99.5
317.037	106
318.284	105.5
319.529	105.5
320.776	102
322.022	98
323.268	109.5
324.514	106
325.758	105.5
327.004	102
328.249	104
329.494	95
330.739	105
331.982	99.5
333.227	101.5
334.471	98
335.715	98.5
336.958	103.5
338.201	104.5
339.445	106
340.687	107
341.93	102
343.173	106.5
344.414	98
345.657	103
346.899	102
348.14	101.5
349.381	102
350.623	108
351.863	99
353.104	108
354.346	104.5
355.585	109
356.826	100
358.065	97.5
359.305	104.5
360.545	97.5
361.784	104.5
363.023	101.5
364.261	103.5
365.501	102.5
366.738	101.5
367.977	106.5
369.216	96
370.453	98.5
371.691	104.5
372.928	93
374.166	95.5
375.402	102.5
376.64	95
377.876	107.5
379.111	98.5
380.348	98.5
381.584	102
382.82	97
384.055	91
385.291	99
386.526	95
387.76	102.5
388.996	101.5
390.229	98
391.465	104.5
392.698	101.5
393.931	103.5
395.166	96.5
396.399	101.5
397.632	97.5
398.866	101
400.098	91.5
401.33	96.5
402.563	99.5
403.795	97
405.027	97.5
406.259	92
407.491	94.5
408.721	97
409.954	94
411.184	100
412.415	92.5
413.645	102
414.876	98
416.106	97.5
417.335	99.5
418.565	100.5
419.794	97
421.024	102
422.253	98
423.482	91.5
424.71	101
425.938	98.5
427.168	90
428.396	103
429.623	99
430.851	103.5
432.078	102.5
433.305	98
434.532	97
435.758	98
436.986	101
438.212	105.5
439.438	103.5
440.664	98
441.89	105
443.115	103.5
444.34	97
445.566	99
446.79	107
448.015	105
449.24	109.5
450.464	109.5
451.688	104.5
452.912	109.5
454.135	110.5
455.359	112
456.582	111.5
457.805	114.5
459.028	115
460.251	119.5
461.473	115
462.696	127
463.918	115.5
465.14	131.5
466.36	126.5
467.582	137.5
468.803	135.5
470.024	147
471.245	150
472.466	167
473.686	170
474.907	184
476.126	196
477.346	208.5
478.565	238.5
479.785	239
481.004	278
482.224	304
483.441	330
484.66	346
485.879	355.5
487.097	379
488.314	378.5
489.532	360.5
490.75	371
491.967	360
493.184	350
494.401	328.5
495.618	306.5
496.835	298
498.05	281.5
499.267	257.5
500.483	249.5
501.698	236.5
502.913	221.5
504.129	214.5
505.343	201.5
506.559	192.5
507.774	181
508.987	175.5
510.202	173.5
511.415	160
512.63	156
513.844	152
515.056	146
516.27	143
517.482	143
518.696	130.5
519.907	140
521.121	135.5
522.332	130
523.545	128.5
524.757	128
525.968	126.5
527.18	121
528.39	123.5
529.602	117
530.812	121.5
532.023	119.5
533.233	116.5
534.443	110
535.653	113
536.862	110.5
538.073	110.5
539.281	108
540.491	104.5
541.7	104
542.908	111
544.117	102.5
545.325	105.5
546.534	103
547.741	107.5
548.949	107.5
550.157	104
551.364	103.5
552.57	106
553.778	103
554.985	101
556.191	101.5
557.398	100
558.604	94
559.809	93
561.014	99
562.221	94.5
563.426	94
564.63	104.5
565.835	97.5
567.041	108
568.245	101
569.449	99
570.653	102.5
571.856	96
573.061	97.5
574.264	94
575.467	103.5
576.67	96
577.873	94.5
579.076	92.5
580.279	102
581.481	91
582.683	92.5
583.884	95.5
585.086	99
586.287	93
587.488	101
588.689	92
589.891	100.5
591.092	93
592.292	105.5
593.492	92
594.692	94
595.892	101.5
597.092	93
598.291	91
599.49	92.5
600.689	98
601.888	95
603.087	97.5
604.285	103
605.483	92.5
606.681	95.5
607.879	90
609.077	92
610.274	99
611.472	105
612.668	98.5
613.865	97
615.061	100
616.258	96
617.454	99
618.65	98.5
619.846	93.5
621.042	98
622.238	102
623.432	96
624.627	94.5
625.822	104
627.017	100
628.212	96.5
629.406	104
630.599	103.5
631.793	98
632.987	99.5
634.181	98
635.373	94.5
636.566	98.5
637.76	104
638.953	104
640.144	96
641.337	106.5
642.529	106
643.721	107
644.912	107
646.104	110
647.295	103.5
648.485	99.5
649.677	98
650.868	96
652.057	106.5
653.248	105.5
654.437	92
655.628	105.5
656.818	103
658.006	97
659.196	103.5
660.384	104
661.574	102.5
662.763	112
663.951	104.5
665.14	108.5
666.327	108
667.515	115.5
668.702	108.5
669.891	112
671.077	105
672.265	111.5
673.451	116.5
674.638	117.5
675.824	121
677.011	124
678.197	123
679.383	128.5
680.568	137.5
681.755	143
682.939	150
684.124	147.5
685.309	158
686.494	167.5
687.679	155
688.863	150.5
690.046	152
691.231	149.5
692.414	150
693.599	146.5
694.781	152
695.964	145.5
697.148	154
698.33	156.5
699.512	161.5
700.694	178
701.877	180
703.059	203
704.24	221
705.423	234
706.604	265
707.784	277
708.965	300.5
710.147	298.5
711.327	264
712.507	229.5
713.687	211
714.867	179.5
716.048	162
717.227	155.5
718.406	136
719.585	124
720.764	122.5
721.942	115.5
723.122	108
724.3	112
725.478	103
726.656	106.5
727.834	100.5
729.011	101.5
730.189	97
731.366	109.5
732.543	98.5
733.719	96.5
734.896	101.5
736.072	94
737.249	93.5
738.426	101
739.602	103
740.777	94.5
741.953	94.5
743.128	95
744.303	102.5
745.477	97
746.651	92.5
747.826	93.5
749	95
750.174	92
751.348	92.5
752.522	97.5
753.696	94.5
754.869	93
756.043	104.5
757.216	94
758.389	96
759.561	98
760.732	91
761.905	90
763.077	97
764.249	90.5
765.421	89.5
766.592	100.5
767.762	94.5
768.934	95
770.105	92
771.275	91
772.446	96.5
773.615	96
774.786	102
775.956	91.5
777.126	103
778.294	102
779.464	104
780.633	109.5
781.801	106.5
782.97	113
784.139	114.5
785.306	116
786.475	121
787.643	121.5
788.81	123.5
789.978	121
791.146	124
792.312	117
793.479	115.5
794.647	105
795.812	111
796.979	106
798.144	105
799.311	104.5
800.477	106.5
801.642	109.5
802.808	113
803.972	97
805.138	93.5
806.302	98
807.467	98.5
808.631	97.5
809.796	95.5
810.959	89
812.124	96
813.287	101
814.451	95
815.614	97.5
816.777	97
817.94	96.5
819.102	99
820.265	92.5
821.427	93
822.59	86
823.751	91.5
824.912	95
826.074	91.5
827.235	87
828.397	92
829.558	89.5
830.718	94.5
831.879	87.5
833.039	86
834.199	90.5
835.359	88
836.519	95
837.679	94
838.838	91
839.998	94
841.156	94
842.315	88
843.473	91
844.633	91.5
845.791	96
846.948	93.5
848.106	98
849.263	93
850.422	96.5
851.579	102.5
852.736	97.5
853.892	98
855.049	99
856.205	103
857.363	101
858.519	101
859.674	104
860.83	102
861.986	108
863.141	102.5
864.296	111
865.451	109
866.605	102
867.76	105.5
868.914	104.5
870.069	99.5
871.224	97.5
872.378	103
873.531	95
874.685	97
875.838	97
876.991	95
878.144	94
879.296	91
880.448	97
881.6	95.5
882.753	91.5
883.905	92.5
885.057	95.5
886.208	88
887.36	95
888.511	92
889.662	89
890.813	88.5
891.964	96.5
893.113	84
894.264	91.5
895.414	86.5
896.564	91
897.714	87
898.864	83.5
900.012	85
901.161	96.5
902.31	94
903.459	87.5
904.607	81
905.756	83.5
906.904	84
908.052	92
909.199	79.5
910.347	88.5
911.495	79
912.643	94
913.789	85
914.936	79
916.083	79
917.229	84
918.375	80.5
919.522	81
920.667	81.5
921.813	77.5
922.959	84.5
924.104	90.5
925.249	85.5
926.393	84.5
927.539	80.5
928.684	86.5
929.827	86
930.972	82
932.115	84.5
933.26	88.5
934.403	85.5
935.547	85.5
936.689	89
937.833	87.5
938.975	77.5
940.119	89.5
941.26	86.5
942.404	81.5
943.545	85
944.688	88.5
945.829	84.5
946.971	81
948.112	86.5
949.253	86
950.394	86.5
951.535	86
952.676	81.5
953.816	84.5
954.956	86.5
956.097	81
957.236	83
958.377	85
959.516	78
960.655	83
961.793	83
962.933	89
964.071	86
965.21	89.5
966.349	78.5
967.487	81.5
968.624	82.5
969.762	78
970.901	81.5
972.038	83.5
973.175	82
974.311	83.5
975.449	83.5
976.586	84.5
977.722	83
978.858	87.5
979.994	86
981.131	87.5
982.267	91
983.402	85.5
984.537	87.5
985.672	84.5
986.807	83.5
987.942	86
989.076	82.5
990.211	85
991.346	85
992.48	86
993.614	87
994.748	88
995.881	85.5
997.014	81.5
998.148	81
999.28	86.5
1000.41	87.5
1001.55	86
1002.68	83.5
1003.81	82
1004.94	84
1006.07	89
1007.21	80.5
1008.34	88.5
1009.47	83.5
1010.6	85
1011.73	88
1012.86	82
1013.99	86
1015.12	85
1016.25	87.5
1017.38	85.5
1018.51	83
1019.64	84
1020.77	81.5
1021.9	93.5
1023.03	77.5
1024.16	85
1025.29	88.5
1026.42	85
1027.54	81
1028.67	83.5
1029.8	84
1030.93	88.5
1032.06	78.5
1033.18	85
1034.31	88
1035.44	83
1036.56	81
1037.69	78.5
1038.82	77
1039.94	83
1041.07	81.5
1042.2	90
1043.32	81.5
1044.45	81
1045.57	85
1046.7	85
1047.82	82
1048.95	82.5
1050.07	78.5
1051.2	83
1052.32	83
1053.45	81.5
1054.57	86
1055.69	89.5
1056.82	85.5
1057.94	78.5
1059.06	90.5
1060.19	79.5
1061.31	84
1062.43	78
1063.55	84
1064.68	85
1065.8	88.5
1066.92	83.5
1068.04	86.5
1069.16	87
1070.28	82.5
1071.41	83.5
1072.53	84.5
1073.65	79
1074.77	80
1075.89	81
1077.01	82
1078.13	82
1079.25	85
1080.37	84
1081.49	80.5
1082.61	81.5
1083.73	81
1084.85	82
1085.96	85
1087.08	83.5
1088.2	84.5
1089.32	87
1090.44	79.5
1091.56	80.5
1092.67	84.5
1093.79	84.5
1094.91	74.5
1096.03	87
1097.14	82
1098.26	85
1099.38	85
1100.49	80.5
1101.61	73
1102.73	78.5
1103.84	81
1104.96	81.5
1106.07	77
1107.19	78.5
1108.3	77.5
1109.42	81.5
1110.53	79.5
1111.65	82
1112.76	75.5
1113.88	81.5
1114.99	79
1116.1	79.5
1117.22	77.5
1118.33	80
1119.44	81
1120.56	81
1121.67	75
1122.78	82
1123.9	81.5
1125.01	85
1126.12	76.5
1127.23	85
1128.34	77.5
1129.46	81
1130.57	78
1131.68	76.5
1132.79	85
1133.9	78.5
1135.01	78
1136.12	78.5
1137.23	72
1138.34	78
1139.45	77.5
1140.56	75.5
1141.67	83
1142.78	72.5
1143.89	81
1145	85.5
1146.11	77
1147.22	72
1148.33	84
1149.44	78.5
1150.54	85.5
1151.65	74
1152.76	77.5
1153.87	83.5
1154.97	83.5
1156.08	75.5
1157.19	79.5
1158.3	76.5
1159.4	81
1160.51	79
1161.62	80.5
1162.72	75.5
1163.83	84.5
1164.93	81.5
1166.04	86
1167.15	79
1168.25	79.5
1169.36	82.5
1170.46	79.5
1171.57	84.5
1172.67	77.5
1173.78	86
1174.88	80
1175.98	79
1177.09	86.5
1178.19	85
1179.3	83
1180.4	83.5
1181.5	78.5
1182.61	80
1183.71	85
1184.81	88
1185.91	82
1187.02	83
1188.12	78.5
1189.22	77.5
1190.32	79
1191.42	76
1192.53	77.5
1193.63	83
1194.73	81.4389
1195.83	72.4413
1196.93	77.3842
1198.03	77.7539
1199.13	79.6559
1200.23	79.3444
1201.33	71.9373
1202.43	72.5364
1203.53	82.1668
1204.63	80.6354
1205.73	76.2906
1206.83	80.4667
1207.93	77.9417
1209.02	76.1062
1210.12	80.4399
1211.22	79.7609
1212.32	78.7573
1213.42	78.3078
1214.52	75.9093
1215.61	73.2578
1216.71	77.4178
1217.81	74.0407
1218.91	77.7472
1220	75.6859
1221.1	74.5792
1222.2	77.8019
1223.29	73.882
1224.39	75.9461
1225.49	77.9829
1226.58	78.1405
1227.68	73.4314
1228.77	76.1017
1229.87	72.9264
1230.96	75.12
1232.06	76.7441
1233.15	75.2472
1234.25	75.8005
1235.34	75.0115
1236.44	75.4277
1237.53	77.0218
1238.63	75.524
1239.72	82.2338
1240.81	74.3726
1241.91	75.515
1243	70.6909
1244.09	73.0791
1245.19	74.4197
1246.28	76.4769
1247.37	77.703
1248.46	76.6579
1249.56	79.2849
1250.65	81.7147
1251.74	77.2687
1252.83	78.4173
1253.92	82.867
1255.01	83.6051
1256.11	86.7722
1257.2	88.2401
1258.29	83.3761
1259.38	94.427
1260.47	89.6306
1261.56	91.448
1262.65	86.015
1263.74	85.8198
1264.83	93.1099
1265.92	89.4953
1267.01	83.0486
1268.1	79.7233
1269.19	82.1471
1270.27	78.6
1271.36	79.8031
1272.45	79.6068
1273.54	75.4953
1274.63	75.375
1275.72	76.267
1276.8	71.5199
1277.89	71.8407
1278.98	71.4624
1280.07	73.618
1281.15	74.0145
1282.24	69.325
1283.33	71.5813
1284.41	68.9828
1285.5	70.7372
1286.59	71.4013
1287.67	71.3593
1288.76	72.2738
1289.84	72.866
1290.93	72.4214
1292.01	74.9585
1293.1	69.0163
1294.19	69.443
1295.27	72.331
1296.35	68.4142
1297.44	70.0451
1298.52	66.3298
1299.61	67.2529
1300.69	69.3586
1301.78	67.0281
1302.86	68.5476
1303.94	67.8662
1305.03	68.989
1306.11	66.2062
1306.4	65
1307.49	66
1308.57	75.5
1309.66	71.5
1310.75	70
1311.84	67.5
1312.92	65
1314.01	69.5
1315.1	71
1316.19	68
1317.27	72
1318.36	73
1319.45	64
1320.53	69
1321.62	70.5
1322.7	73
1323.79	69.5
1324.88	66
1325.96	66
1327.05	72.5
1328.13	65.5
1329.21	68.5
1330.3	68
1331.38	71.5
1332.47	68
1333.55	62
1334.64	71
1335.72	69.5
1336.8	73.5
1337.89	73.5
1338.97	68.5
1340.05	72
1341.14	67.5
1342.22	69
1343.3	71
1344.39	74
1345.47	75
1346.55	72.5
1347.63	71.5
1348.71	71
1349.79	73
1350.88	72.5
1351.96	69
1353.04	75
1354.12	70.5
1355.2	71
1356.28	72.5
1357.36	70
1358.44	76
1359.52	76.5
1360.6	63.5
1361.68	73
1362.76	71.5
1363.84	73
1364.92	74
1366	69
1367.08	67.5
1368.16	67.5
1369.23	74
1370.31	75
1371.39	76
1372.47	71
1373.55	68.5
1374.62	74
1375.7	73
1376.78	73.5
1377.85	72
1378.93	70.5
1380.01	71.5
1381.09	72.5
1382.16	73.5
1383.24	72
1384.31	80
1385.39	76
1386.47	79.5
1387.54	76.5
1388.62	79
1389.69	84
1390.77	82
1391.84	79.5
1392.92	84
1393.99	87
1395.06	89.5
1396.14	87
1397.21	86
1398.29	92.5
1399.36	98.5
1400.43	102
1401.51	100.5
1402.58	100
1403.65	110
1404.73	108
1405.8	105
1406.87	117
1407.94	115.5
1409.02	114
1410.09	111
1411.16	113.5
1412.23	118
1413.3	115.5
1414.37	116.5
1415.45	115.5
1416.52	111
1417.59	109.5
1418.66	102.5
1419.73	92
1420.8	93.5
1421.87	96
1422.94	93
1424.01	94
1425.08	88
1426.15	84
1427.22	91
1428.29	86
1429.35	85.5
1430.42	86
1431.49	81
1432.56	75.5
1433.63	78.5
1434.7	75
1435.77	86
1436.83	74
1437.9	77.5
1438.97	74.5
1440.04	80
1441.1	78.5
1442.17	80
1443.24	82.5
1444.3	68.5
1445.37	71
1446.44	74
1447.5	82.5
1448.57	74.5
1449.63	78.5
1450.7	67
1451.76	80
1452.83	77
1453.89	76.5
1454.96	70.5
1456.02	70.5
1457.09	66
1458.15	77
1459.22	75.5
1460.28	70
1461.34	74.5
1462.41	74.5
1463.47	70
1464.54	78.5
1465.6	70
1466.66	76
1467.72	73.5
1468.79	70.5
1469.85	73
1470.91	72
1471.97	73.5
1473.04	69
1474.1	73
1475.16	78.5
1476.22	71
1477.28	68.5
1478.34	71.5
1479.4	75.5
1480.47	72.5
1481.53	73.5
1482.59	68
1483.65	71
1484.71	69
1485.77	72
1486.83	75
1487.89	76
1488.95	72.5
1490.01	79
1491.07	71
1492.12	72.5
1493.18	74.5
1494.24	70
1495.3	69.5
1496.36	69
1497.42	75.5
1498.47	67
1499.53	71
1500.59	71
1501.65	68
1502.7	72
1503.76	70.5
1504.82	72.5
1505.88	73.5
1506.93	69
1507.99	68.5
1509.05	75
1510.1	72.5
1511.16	71
1512.21	77
1513.27	70
1514.32	70
1515.38	74.5
1516.43	64
1517.49	71.5
1518.54	72.5
1519.6	67.5
1520.65	66
1521.71	74.5
1522.76	72
1523.82	75
1524.87	68
1525.92	65.5
1526.98	61
1528.03	68
1529.08	75.5
1530.14	67
1531.19	64.5
1532.24	75
1533.3	72
1534.35	71
1535.4	71
1536.45	71.5
1537.5	67.5
1538.56	70.5
1539.61	69.5
1540.66	70.5
1541.71	72
1542.76	68
1543.81	68
1544.86	66
1545.91	69.5
1546.96	65.5
1548.01	68
1549.06	69
1550.11	72
1551.16	71
1552.21	72.5
1553.26	66
1554.31	74
1555.36	69.5
1556.41	67.5
1557.46	66.5
1558.51	76
1559.55	70
1560.6	72
1561.65	77.5
1562.7	75.5
1563.75	62
1564.79	64
1565.84	68.5
1566.89	68.5
1567.94	66.5
1568.98	67
1570.03	67
1571.07	69
1572.12	65
1573.17	65.5
1574.21	67.5
1575.26	72
1576.31	67
1577.35	65.5
1578.4	70
1579.44	71
1580.49	68.5
1581.53	67
1582.58	64
1583.62	69
1584.67	66.5
1585.71	69.5
1586.75	66
1587.8	65
1588.84	71
1589.89	67
1590.93	65.5
1591.97	60
1593.02	68
1594.06	69
1595.1	63
1596.14	70
1597.19	66
1598.23	66.5
1599.27	68
1600.31	65
1601.35	67
1602.4	68
1603.44	63
1604.48	61.5
1605.52	66.5
1606.56	70.5
1607.6	64.5
1608.64	66.5
1609.68	66.5
1610.72	68
1611.76	61.5
1612.8	66.5
1613.84	66.5
1614.88	66
1615.92	64
1616.96	59.5
1618	68
1619.04	70
1620.08	62
1621.12	62
1622.16	62.5
1623.19	60
1624.23	65.5
1625.27	59.5
1626.31	68.5
1627.35	69
1628.38	62
1629.42	60.5
1630.46	69
1631.5	64.5
1632.53	65.5
1633.57	53
1634.61	65
1635.64	64
1636.68	62
1637.71	62
1638.75	67
1639.79	67
1640.82	69.5
1641.86	68
1642.89	63
1643.93	59.5
1644.96	64.5
1646	63.5
1647.03	63
1648.07	69
1649.1	63
1650.14	65.5
1651.17	60.5
1652.2	59.5
1653.24	63.5
1654.27	63
1655.3	60
1656.34	56.5
1657.37	57
1658.4	62.5
1659.44	61.5
1660.47	63
1661.5	57
1662.53	65
1663.57	66.5
1664.6	64.5
1665.63	67
1666.66	68.5
1667.69	59.5
1668.72	60.5
1669.75	62.5
1670.79	55.5
1671.82	58
1672.85	59
1673.88	64
1674.91	62.5
1675.94	71
1676.97	64.5
1678	65.5
1679.03	64
1680.06	66
1681.09	59.5
1682.11	60.5
1683.14	58.5
1684.17	60
1685.2	64
1686.23	64.5
1687.26	61
1688.29	62.5
1689.32	61.5
1690.34	64.5
1691.37	63
1692.4	63.5
1693.43	63
1694.45	64.5
1695.48	60
1696.51	64
1697.53	63
1698.56	62
1699.59	62
1700.61	63.5
1701.64	63
1702.66	59.5
1703.69	57.5
1704.72	60
1705.74	57
1706.77	61.5
1707.79	63
1708.82	63.5
1709.84	65.5
1710.87	66.5
1711.89	62.5
1712.92	59
1713.94	64
1714.96	56
1715.99	56
1717.01	60
1718.04	55.5
1719.06	62
1720.08	67.5
1721.11	60.5
1722.13	61
1723.15	57.5
1724.17	59
1725.2	62
1726.22	60
1727.24	56
1728.26	58.5
1729.28	58.5
1730.31	62
1731.33	58
1732.35	64.5
1733.37	63
1734.39	60
1735.41	61
1736.43	62.5
1737.45	60.5
1738.47	57.5
1739.49	57.5
1740.51	69
1741.53	57.5
1742.55	56
1743.57	57
1744.59	57.5
1745.61	60.5
1746.63	58.5
1747.65	58.5
1748.67	58.5
1749.69	58
1750.71	64
1751.72	59
1752.74	58
1753.76	59
1754.78	60.5
1755.8	57
1756.81	60.5
1757.83	59
1758.85	56
1759.86	59.5
1760.88	59
1761.9	57.5
1762.91	59
1763.93	61.5
1764.95	59.5
1765.96	60.5
1766.98	56.5
1768	59
1769.01	60.5
1770.03	58
1771.04	57
1772.06	57
1773.07	59
1774.09	59
1775.1	62
1776.12	54.5
1777.13	58.5
1778.14	58.5
1779.16	56.5
1780.17	60
1781.19	58
1782.2	61
1783.21	57.5
1784.23	61
1785.24	61
1786.25	62
1787.27	57.5
1788.28	59.5
1789.29	57
1790.3	59
1791.32	60.5
1792.33	60
1793.34	57
1794.35	59.5
1795.36	58.5
1796.37	56.5
1797.38	59.5
1798.4	65
1799.41	59
1800.42	59.5
1801.43	62
1802.44	54
1803.45	61.5
1804.46	57
1805.47	61
1806.48	61.5
1807.49	55.5
1808.5	53.5
1809.51	55
1810.52	55.5
1811.53	61
1812.53	57.5
1813.54	56
1814.55	61
1815.56	56
1816.57	57.5
1817.58	55
1818.58	54.5
1819.59	57.5
1820.6	56
1821.61	60
1822.61	57
1823.62	63
1824.63	56.5
1825.64	59.5
1826.64	60
1827.65	57.5
1828.66	56
1829.66	58.5
1830.67	55
1831.67	56
1832.68	55.5
1833.68	53.5
1834.69	54
1835.7	56
1836.7	64
1837.71	58
1838.71	55
1839.71	53.5
1840.72	49
1841.72	59
1842.73	59.5
1843.73	56
1844.74	54.5
1845.74	55
1846.74	49.5
1847.75	57.5
1848.75	56.5
1849.75	54
1850.76	52.5
1851.76	59
1852.76	56
1853.76	54
1854.77	49
1855.77	63
1856.77	55.5
1857.77	60.5
1858.77	62.5
1859.78	55.5
1860.78	53.5
1861.78	56
1862.78	57.5
1863.78	60.5
1864.78	55
1865.78	55
1866.78	55.5
1867.78	54.5
1868.78	53.5
1869.78	54.5
1870.78	53.5
1871.78	54
1872.78	56
1873.78	54
1874.78	56.5
1875.78	59
1876.78	57
1877.78	51
1878.78	52.5
1879.77	54
1880.77	53
1881.77	53
1882.77	54
1883.77	56
1884.76	55.5
1885.76	51
1886.76	51
1887.76	56.5
1888.75	52
1889.75	54
1890.75	56
1891.74	59
1892.74	56.5
1893.74	51.5
1894.73	54.5
1895.73	53
1896.72	52
1897.72	54.5
1898.72	59
1899.71	59.5
1900.71	59.5
1901.7	53.5
1902.7	51
1903.69	53
1904.69	52
1905.68	53
1906.67	54.5
1907.67	58.5
1908.66	55
1909.66	51.5
1910.65	54
1911.64	53
1912.64	56.5
1913.63	51
1914.62	54
1915.62	51
1916.61	52
1917.6	55.5
1918.59	54
1919.59	53.5
1920.58	54.5
1921.57	54.5
1922.56	55
1923.55	53.5
1924.55	47
1925.54	53.5
1926.53	59.5
1927.52	55
1928.51	57
1929.5	54.5
1930.49	50.5
1931.48	53
1932.47	56
1933.46	54
1934.45	52
1935.44	52.5
1936.43	53.5
1937.42	54.5
1938.41	57
1939.4	53.5
1940.39	56.5
1941.38	52.5
1942.37	47
1943.36	53
1944.34	58
1945.33	53
1946.32	49
1947.31	60
1948.3	57.75
1949.28	54.5
1950.27	51
1951.26	55.5
1952.25	52.5
1953.23	56.5
1954.22	54
1955.21	55
1956.2	52.5
1957.18	55
1958.17	55.5
1959.15	50.5
1960.14	57.5
1961.13	54.5
1962.11	54
1963.1	54
1964.08	51
1965.07	52.5
1966.05	54
1967.04	53
1968.02	51
1969.01	59
1969.99	50
1970.98	47.5
1971.96	51
1972.94	50.5
1973.93	53.5
1974.91	53.5
1975.9	53
1976.88	51
1977.86	50
1978.85	48
1979.83	50.5
1980.81	54.5
1981.8	47.5
1982.78	53
1983.76	50.5
1984.74	47.5
1985.72	52
1986.71	53.5
1987.69	53
1988.67	53
1989.65	54.5
1990.63	49.5
1991.61	49
1992.6	52
1993.58	52
1994.56	57.5
1995.54	50
1996.52	53.5
1997.5	53
1998.48	52
1999.46	48
2000.44	52.5
2001.42	53.5
2002.4	50.5
2003.38	50
2004.36	53.5
2005.34	52.5
2006.32	50
2007.29	54
2008.27	50
2009.25	51
2010.23	48
2011.21	47
2012.19	49.5
2013.16	49.5
2014.14	51
2015.12	51
2016.1	54
2017.07	48
2018.05	52
2019.03	49.5
2020	50.5
2020.98	46
2021.96	47
2022.93	50.5
2023.91	49.5
2024.89	53
2025.86	51
2026.84	50
2027.81	50.5
2028.79	54.5
2029.77	51.5
2030.74	53.5
2031.72	53.5
2032.69	47
2033.67	51
2034.64	48
2035.61	49
2036.59	52
2037.56	49
2038.54	58
2039.51	53
2040.48	53
2041.46	50.5
2042.43	51.5
2043.41	49
2044.38	51
2045.35	47.5
2046.32	49
2047.3	51
2048.27	52
2049.24	52
2050.21	49
2051.19	52
2052.16	51.5
2053.13	49.5
2054.1	51.5
2055.07	48.5
2056.04	47
2057.02	51
2057.99	50.5
2058.96	49
2059.93	51.5
2060.9	49.5
2061.87	53
2062.84	50.5
2063.81	47.5
2064.78	51
2065.75	51
2066.72	54
2067.69	52
2068.66	55.5
2069.63	47
2070.6	46
2071.57	53.5
2072.53	54
2073.5	50
2074.47	49.5
2075.44	49
2076.41	48.5
2077.38	50
2078.34	52.5
2079.31	49
2080.28	44
2081.25	49
2082.21	54.5
2083.18	48.5
2084.15	49
2085.12	55.5
2086.08	54.5
2087.05	50.5
2088.02	47.5
2088.98	49
2089.95	49
2090.91	52
2091.88	52.5
2092.85	50
2093.81	47.5
2094.78	51
2095.74	54
2096.71	46
2097.67	52.5
2098.64	48
2099.6	47.5
2100.57	50.5
2101.53	49
2102.5	49.5
2103.46	51
2104.42	49
2105.39	49.5
2106.35	49.5
2107.31	50
2108.28	51
2109.24	50
2110.2	51.5
2111.17	49.5
2112.13	49
2113.09	51
2114.06	45.5
2115.02	47
2115.98	52.5
2116.94	48.5
2117.9	49.5
2118.86	48.5
2119.83	52
2120.79	46
2121.75	49
2122.71	49.5
2123.67	48.5
2124.63	48.5
2125.59	50.5
2126.55	49
2127.51	49
2128.48	53.5
2129.43	49.5
2130.4	41.5
2131.35	49
2132.31	48
2133.27	46.5
2134.23	48
2135.19	50
2136.15	51.5
2137.11	46.5
2138.07	48
2139.03	46.5
2139.99	47
2140.95	45.5
2141.9	48
2142.86	52.9401
2143.82	48.9204
2144.78	52.4094
2145.74	46.5316
2146.69	45.5816
2147.65	49.3221
2148.61	50.9081
2149.56	46.0826
2150.52	46.9005
2151.48	44.8087
2152.44	51.9631
2153.39	47.5253
2154.35	45.8327
2155.3	46.9873
2156.26	49.4156
2157.22	46.6813
2158.17	47.4838
2159.13	48.5101
2160.08	46.5342
2161.04	45.9561
2161.99	50.8066
2162.95	42.8738
2163.9	43.7893
2164.86	45.3034
2165.81	47.1706
2166.77	42.3756
2167.72	48.0645
2168.68	46.1566
2169.63	47.8019
2170.58	44.7022
2171.54	43.9551
2172.49	42.5856
2173.44	43.1888
2174.4	45.2035
2175.35	47.6467
2176.3	46.4275
2177.26	42.0875
2178.21	48.7004
2179.16	45.1449
2180.11	47.4412
2181.07	43.5656
2182.02	46.6091
2182.97	46.5929
2183.92	44.2731
2184.88	42.7392
2185.83	44.9251
2186.78	44.6785
2187.73	42.4009
2188.68	45.8228
2189.63	47.8239
2190.58	43.3011
2191.53	45.5112
2192.48	47.4007
2193.43	43.1941
2194.38	43.1346
2195.33	43.6141
2196.28	43.5801
2197.23	44.2444
2198.18	47.996
2199.13	44.1345
2200.08	43.587
2201.03	45.9192
2201.98	44.483
2202.93	45.4978
2203.88	44.3604
2204.83	44.327
2205.78	45.8131
2206.72	42.4781
2207.67	45.4449
2208.62	43.5447
2209.57	44.1935
2210.52	49.4144
2211.46	43.3869
2212.41	43.3109
2213.36	42.8832
2214.31	47.3843
2215.25	49.2715
2216.2	46.2768
2217.15	43.2001
2218.09	43.9169
2219.04	43.8921
2219.99	42.9036
2220.93	43.4151
2221.88	44.3035
2222.83	41.5267
2223.77	46.9887
2224.72	47.4338
2225.66	44.9383
2226.61	42.516
2227.55	44.0809
2228.5	46.9744
2229.44	42.7125
2230.39	44.8975
2231.33	41.6096
2232.28	44.6134
2233.22	43.3827
2234.17	45.5723
2235.11	44.577
2236.05	43.8348
2237	43.1493
2237.94	44.9428
2238.88	38.9544
2239.83	44.4147
2240.04	46.5
2240.98	45.5
2241.93	44
2242.88	48.5
2243.83	44
2244.78	45
2245.72	42
2246.67	42
2247.62	42
2248.56	39
2249.51	44
2250.46	41
2251.4	47.5
2252.35	44.5
2253.3	42.5
2254.24	48
2255.19	44
2256.14	43
2257.08	46.5
2258.03	43
2258.97	46
2259.92	42.5
2260.86	45
2261.81	47
2262.75	40
2263.7	44
2264.64	41.5
2265.59	43.5
2266.53	44.5
2267.48	44
2268.42	46
2269.36	45
2270.31	40
2271.25	44.5
2272.19	44.5
2273.14	44
2274.08	43
2275.02	43.5
2275.97	34
2276.91	45
2277.85	41
2278.8	44
2279.74	48
2280.68	40
2281.62	47
2282.56	36.5
2283.51	48.5
2284.45	46
2285.39	45
2286.33	47
2287.27	42.5
2288.21	37
2289.15	43
2290.09	45
2291.04	44
2291.98	45.5
2292.92	45
2293.86	40.5
2294.8	45
2295.74	40.5
2296.68	42.5
2297.62	43
2298.56	42.5
2299.5	41
2300.44	48.5
2301.37	40
2302.31	44.5
2303.25	42
2304.19	44
2305.13	44
2306.07	42.5
2307.01	41.5
2307.94	45.5
2308.88	40
2309.82	43
2310.76	45
2311.7	39.5
2312.63	43
2313.57	42.5
2314.51	43
2315.44	40.5
2316.38	41
2317.32	46
2318.26	41.5
2319.19	41
2320.13	40.5
2321.06	42
2322	41
2322.94	42
2323.87	40
2324.81	46.5
2325.74	40.5
2326.68	43
2327.61	42.5
2328.55	40.5
2329.48	40.5
2330.42	39
2331.35	42
2332.29	42
2333.22	44
2334.16	50
2335.09	41
2336.02	44.5
2336.96	44.5
2337.89	41.5
2338.83	41.5
2339.76	40
2340.69	42
2341.63	41.5
2342.56	43
2343.49	44
2344.42	48
2345.36	47.5
2346.29	42
2347.22	43.5
2348.15	47
2349.09	42.5
2350.02	43.5
2350.95	41
2351.88	45.5
2352.81	44
2353.74	37.5
2354.68	41.5
2355.61	42
2356.54	40.5
2357.47	42
2358.4	44
2359.33	44
2360.26	44
2361.19	46
2362.12	43
2363.05	38
2363.98	42.5
2364.91	45
2365.84	44
2366.77	43
2367.7	49
2368.63	46.5
2369.56	40.5
2370.49	46
2371.41	42.5
2372.34	45
2373.27	45
2374.2	41.5
2375.13	45.5
2376.06	42.5
2376.98	44.5
2377.91	42
2378.84	44
2379.77	39.5
2380.69	40
2381.62	45
2382.55	38
2383.47	35.5
2384.4	45
2385.33	43.5
2386.25	42
2387.18	44
2388.11	42
2389.03	44.5
2389.96	43
2390.89	38
2391.81	43.5
2392.74	40.5
2393.66	40
2394.59	43
2395.51	39
2396.44	44
2397.36	43.5
2398.29	40.5
2399.21	39
2400.14	44.5
2401.06	38
2401.99	40.5
2402.91	41
2403.83	46
2404.76	43
2405.68	45.5
2406.6	40.5
2407.53	44.5
2408.45	46
2409.37	46
2410.3	43
2411.22	39
2412.14	45.5
2413.06	43.5
2413.99	36.5
2414.91	47
2415.83	40
2416.75	38.5
2417.68	43
2418.6	43.5
2419.52	42
2420.44	41.5
2421.36	42
2422.28	41.5
2423.2	38
2424.12	43
2425.05	40
2425.97	42
2426.89	40.5
2427.81	39
2428.73	43.5
2429.65	41
2430.57	37.5
2431.49	43.5
2432.41	39
2433.33	43
2434.25	40
2435.17	40
2436.08	42.5
2437	44
2437.92	43
2438.84	45
2439.76	48.5
2440.68	42.5
2441.6	44
2442.51	39.5
2443.43	41
2444.35	48
2445.27	45
2446.19	41
2447.1	45
2448.02	42
2448.94	44
2449.85	38.5
2450.77	39.5
2451.69	42.5
2452.61	44.5
2453.52	43
2454.44	41
2455.35	45
2456.27	41
2457.19	40
2458.1	47
2459.02	38.5
2459.94	40
2460.85	41.5
2461.77	45.5
2462.68	42.5
2463.6	42.5
2464.51	46
2465.43	38
2466.34	38
2467.25	39
2468.17	43
2469.08	42
2470	46
2470.91	40.5
2471.83	42
2472.74	46
2473.65	44
2474.57	46
2475.48	40
2476.39	41.5
2477.31	41.5
2478.22	44
2479.13	43
2480.04	39.5
2480.96	42.5
2481.87	44
2482.78	44
2483.69	46.5
2484.6	42
2485.52	45
2486.43	43
2487.34	40.5
2488.25	50
2489.16	41
2490.07	43
2490.99	44
2491.9	43.5
2492.81	48
2493.72	41
2494.63	46
2495.54	47.5
2496.45	46
2497.36	47.5
2498.27	51.5
2499.18	43
2500.09	41.5
2501	43
2501.91	45
2502.82	42.5
2503.73	48.5
2504.63	44.5
2505.54	45
2506.45	50
2507.36	44.5
2508.27	44.5
2509.18	36
2510.09	44.5
2510.99	46
2511.9	40
2512.81	39.5
2513.72	38
2514.62	42.5
2515.53	48
2516.44	40
2517.35	44.5
2518.25	45.5
2519.16	42
2520.07	39
2520.97	40
2521.88	45
2522.79	41
2523.69	43
2524.6	44
2525.51	38.5
2526.41	39
2527.32	42.5
2528.22	44
2529.13	39
2530.03	42
2530.94	36.5
2531.84	39
2532.75	40.5
2533.65	39.5
2534.56	42.5
2535.46	42.5
2536.37	41.5
2537.27	46
2538.17	37
2539.08	43.5
2539.98	45.5
2540.89	40
2541.79	41
2542.69	42.5
2543.6	44
2544.5	43
2545.4	40.5
2546.31	42
2547.21	42.5
2548.11	42
2549.01	39
2549.92	41
2550.82	41.5
2551.72	36
2552.62	42.5
2553.52	42
2554.42	43.5
2555.33	40.5
2556.23	41
2557.13	41
2558.03	38.5
2558.93	39
2559.83	42
2560.73	36.5
2561.63	41.5
2562.53	42.5
2563.43	41
2564.33	40.5
2565.24	42
2566.13	39.5
2567.04	42
2567.93	43
2568.83	39
2569.73	44.5
2570.63	40.5
2571.53	43.5
2572.43	42
2573.33	34
2574.23	39
2575.13	38
2576.03	40
2576.92	38
2577.82	41
2578.72	41
2579.62	41
2580.52	43.5
2581.41	44
2582.31	35
2583.21	38.5
2584.11	39
2585	43.5
2585.9	39
2586.8	41.5
2587.69	38
2588.59	35.5
2589.49	40.5
2590.38	44
2591.28	40.5
2592.18	39
2593.07	42
2593.97	42.5
2594.86	39.5
2595.76	37.5
2596.66	38
2597.55	36.5
2598.45	39
2599.34	42
2600.24	42
2601.13	37.5
2602.03	37.5
2602.92	40
2603.81	42.5
2604.71	46
2605.6	40
2606.5	35.5
2607.39	41
2608.28	37
2609.18	40.5
2610.07	39.5
2610.97	44
2611.86	43
2612.75	38
2613.64	34
2614.54	43
2615.43	36
2616.32	40
2617.22	42
2618.11	44
2619	39
2619.89	39
2620.78	37
2621.68	36.5
2622.57	40.5
2623.46	36
2624.35	41.5
2625.24	35
2626.13	40
2627.02	40
2627.91	38.5
2628.81	42
2629.7	39
2630.59	41
2631.48	43.5
2632.37	39
2633.26	35.5
2634.15	43
2635.04	42
2635.93	42
2636.82	41
2637.71	39
2638.59	36.5
2639.48	41
2640.37	39
2641.26	38
2642.15	40
2643.04	39.5
2643.93	34
2644.82	41
2645.71	44
2646.59	38.5
2647.48	42
2648.37	37
2649.26	37.5
2650.15	38
2651.03	39
2651.92	38
2652.81	39
2653.69	43.5
2654.58	39.5
2655.47	42.5
2656.35	38
2657.24	38
2658.13	40.5
2659.01	35.5
2659.9	39
2660.79	38
2661.67	34
2662.56	40.5
2663.44	38
2664.33	44
2665.22	37
2666.1	35
2666.99	40.5
2667.87	38
2668.76	38
2669.64	43
2670.52	39.5
2671.41	43
2672.29	41
2673.18	40
2674.06	41
2674.95	36.5
2675.83	38
2676.71	34.5
2677.6	37
2678.48	41
2679.36	41
2680.25	40.5
2681.13	36.5
2682.01	40.5
2682.9	37
2683.78	41.5
2684.66	33.5
2685.55	43
2686.43	41.5
2687.31	40
2688.19	39
2689.07	38
2689.96	39
2690.84	38
2691.72	39.5
2692.6	41
2693.48	41
2694.36	37
2695.24	43
2696.12	36
2697	38
2697.89	36.5
2698.77	37
2699.65	41
2700.53	40.5
2701.41	42.5
2702.29	38
2703.17	36.5
2704.05	33
2704.93	41.5
2705.81	39.5
2706.69	39.5
2707.57	36.5
2708.44	41.5
2709.32	34
2710.2	38.5
2711.08	34
2711.96	40.5
2712.84	38.5
2713.72	40.5
2714.59	38
2715.47	41
2716.35	40
2717.23	38
2718.11	35.5
2718.98	42
2719.86	40
2720.74	38.5
2721.62	39.5
2722.49	43.5
2723.37	36
2724.25	39.5
2725.12	41.5
2726	41.5
2726.88	36
2727.75	36
2728.63	41.5
2729.51	39
2730.38	33.5
2731.26	40.5
2732.13	41
2733.01	39
2733.88	37
2734.76	40
2735.63	38.5
2736.51	36.5
2737.38	42
2738.26	36.5
2739.13	38.5
2740.01	38.5
2740.88	41.5
2741.76	40
2742.63	35.5
2743.5	42
2744.38	38
2745.25	42.5
2746.13	39.5
2747	42.5
2747.87	39.5
2748.75	41.5
2749.62	35.5
2750.49	39.5
2751.36	40.5
2752.24	43
2753.11	43
2753.98	34.5
2754.86	40
2755.73	38
2756.6	40
2757.47	39.5
2758.34	38.5
2759.22	38
2760.09	39
2760.96	43
2761.83	39.5
2762.7	44
2763.57	37.5
2764.44	45.5
2765.31	39.5
2766.18	41.5
2767.06	46
2767.93	42.5
2768.8	47
2769.67	42.5
2770.54	38
2771.41	41
2772.28	41.5
2773.15	42
2774.02	43
2774.89	48
2775.75	42.5
2776.62	45.5
2777.49	46
2778.36	40
2779.23	41
2780.1	44
2780.97	51
2781.84	43.5
2782.71	51
2783.57	52
2784.44	52
2785.31	56.5
2786.18	48.5
2787.04	51.5
2787.91	55
2788.78	52.5
2789.65	56
2790.51	54
2791.38	57.5
2792.25	51
2793.12	58.5
2793.98	57.5
2794.85	60
2795.72	58.5
2796.58	56
2797.45	55.5
2798.31	57
2799.18	51.5
2800.05	53
2800.91	58.5
2801.78	62.5
2802.64	58
2803.51	58
2804.37	59
2805.24	52
2806.1	56
2806.97	57
2807.83	58.5
2808.7	55.5
2809.56	63.5
2810.43	60.5
2811.29	61
2812.15	60
2813.02	54
2813.88	56
2814.75	59
2815.61	57
2816.47	58
2817.34	63.5
2818.2	57.5
2819.06	54
2819.92	60
2820.79	55
2821.65	61.5
2822.51	57
2823.37	54
2824.24	55.5
2825.1	55
2825.96	52.5
2826.82	55
2827.69	52.5
2828.55	50.5
2829.41	58
2830.27	54.5
2831.13	59.5
2831.99	58
2832.85	57
2833.71	54.5
2834.58	55
2835.44	57.5
2836.3	59.5
2837.16	58
2838.02	61.5
2838.88	56
2839.74	58
2840.6	55.5
2841.46	59
2842.32	55.5
2843.18	61
2844.04	62
2844.9	61.5
2845.75	59.5
2846.61	59.5
2847.47	61
2848.33	58.5
2849.19	57
2850.05	57.5
2850.91	58.5
2851.77	55
2852.62	65
2853.48	60
2854.34	62.5
2855.2	67
2856.06	59
2856.91	60.5
2857.77	58.5
2858.63	61.5
2859.48	66
2860.34	64
2861.2	68.5
2862.06	67
2862.91	66.5
2863.77	71
2864.63	69
2865.48	77.5
2866.34	75
2867.19	71
2868.05	77.5
2868.91	74.5
2869.76	85.5
2870.62	83
2871.47	85
2872.33	87
2873.18	88
2874.04	94
2874.89	95
2875.75	95
2876.6	106
2877.46	102
2878.31	111
2879.17	109
2880.02	116.5
2880.88	114
2881.73	120
2882.58	122.5
2883.44	127.5
2884.29	133
2885.14	145
2886	149
2886.85	158.5
2887.7	164
2888.56	164
2889.41	175.5
2890.26	192
2891.12	195
2891.97	213
2892.82	222
2893.67	231
2894.52	254
2895.38	268.5
2896.23	285.5
2897.08	313
2897.93	340.5
2898.78	347.5
2899.64	367
2900.49	402
2901.34	446
2902.19	449
2903.04	479
2903.89	492.5
2904.74	502.5
2905.59	505.5
2906.44	512
2907.29	496
2908.14	503
2908.99	493
2909.84	478.5
2910.69	431.5
2911.54	416
2912.39	375
2913.24	363.5
2914.09	326
2914.94	300.5
2915.79	273
2916.64	246.5
2917.49	238.5
2918.34	215.5
2919.18	202
2920.03	187.5
2920.88	177.5
2921.73	164
2922.58	150.5
2923.42	140
2924.27	140.5
2925.12	136.5
2925.97	130
2926.82	122.5
2927.66	112.5
2928.51	108
2929.36	102
2930.2	111.5
2931.05	103
2931.9	98
2932.74	97
2933.59	96.5
2934.44	90.5
2935.28	90.5
2936.13	88.5
2936.98	84.5
2937.82	84.5
2938.67	88.5
2939.51	86
2940.36	87
2941.2	79
2942.05	82
2942.9	83
2943.74	83.5
2944.58	84.5
2945.43	83.5
2946.27	93
2947.12	89
2947.96	93.5
2948.81	96
2949.65	103.5
2950.5	102
2951.34	103
2952.18	117
2953.03	111
2953.87	123
2954.71	130.5
2955.56	136
2956.4	155
2957.24	156
2958.09	163.5
2958.93	176
2959.77	189.5
2960.62	204.5
2961.46	208
2962.3	216.5
2963.14	235.5
2963.98	237.5
2964.83	243.5
2965.67	238.5
2966.51	239
2967.35	239.5
2968.19	224.5
2969.04	226.5
2969.88	220.5
2970.72	200.5
2971.56	194.956
2972.4	182.882
2973.24	174.79
2974.08	169.706
2974.92	160.023
2975.76	152.529
2976.6	138.845
2977.44	129.992
2978.28	126.804
2979.12	117.119
2979.96	109.735
2980.8	107.338
2981.64	100.363
2982.48	97.3108
2983.32	92.4599
2984.16	84.7661
2985	87.0341
2985.84	83.1916
2986.68	76.8126
2987.52	82.1238
2988.35	72.8583
2989.19	69.0037
2990.03	69.9853
2990.87	72.0517
2991.71	67.0217
2992.55	62.2058
2993.38	63.1391
2994.22	57.6592
2995.06	60.2578
2995.9	58.6167
2996.73	57.2475
2997.57	59.6146
2998.41	56.574
2999.25	53.2149
3000.08	51.4301
3000.92	53.1881
3001.76	51.6772
3002.59	50.0978
3003.43	49.299
3004.27	50.472
3005.1	47.8244
3005.94	46.6416
3006.78	48.6145
3007.61	49.2677
3008.45	49.7005
3009.28	48.1988
3010.12	44.4474
3010.95	45.5267
3011.79	45.3832
3012.62	46.7123
3013.46	45.7866
3014.29	46
3015.13	44.5909
3015.96	44.3904
3016.8	45.8009
3017.63	43.0136
3018.47	40.3355
3019.3	44.0461
3020.14	45.0371
3020.97	42.5499
3021.8	42.3449
3022.64	41.3619
3023.47	42.6356
3024.3	42.9872
3025.14	42.8272
3025.97	40.2102
3026.8	43.0379
3027.64	41.4715
3028.47	41.3885
3029.3	41.6152
3030.14	39.6745
3030.97	40.1222
3031.8	39.781
3032.63	40.2024
3033.46	40.4707
3034.3	38.8963
3035.13	40.5146
3035.96	39.8762
3036.79	39.099
3037.62	38.1536
3038.46	40.5225
3039.29	42.0802
3040.12	40.1994
3040.95	37.535
3041.78	38.1949
3042.61	38.7357
3043.44	38.8503
3044.27	38.0041
3045.1	39.9427
3045.93	40.1137
3046.76	38.3824
3047.59	38.6564
3048.42	38.9109
3049.25	40.4412
3050.08	39.3298
3050.91	39.8544
3051.74	37.7679
3052.57	37.5992
3053.4	38.5655
3054.23	38.3898
3055.06	38.6929
3055.89	39.6128
3056.72	39.0519
3057.32	40.5
3058.15	40
3058.98	40.5
3059.82	38
3060.65	36.5
3061.48	34
3062.31	37
3063.15	38
3063.98	39.5
3064.81	41
3065.64	38
3066.48	36.5
3067.31	36
3068.14	39
3068.97	37
3069.8	38
3070.63	40
3071.47	36.5
3072.3	42.5
3073.13	40
3073.96	38.5
3074.79	42
3075.62	36.5
3076.45	32
3077.28	38.5
3078.11	39.5
3078.94	37
3079.77	40.5
3080.6	38.5
3081.43	37.5
3082.26	41
3083.09	38
3083.92	42
3084.75	41.5
3085.58	37
3086.41	37.5
3087.24	40.5
3088.07	40.5
3088.9	37
3089.73	40
3090.55	40.5
3091.38	41.5
3092.21	40
3093.04	41.5
3093.87	40
3094.7	41
3095.52	42
3096.35	38
3097.18	40
3098.01	38
3098.84	35.5
3099.66	33
3100.49	40.5
3101.32	43
3102.14	36.5
3102.97	36
3103.8	35.5
3104.62	42
3105.45	40.5
3106.28	43.5
3107.1	36
3107.93	37.5
3108.76	40
3109.58	37.5
3110.41	39
3111.23	36.5
3112.06	37
3112.89	38
3113.71	37
3114.54	39
3115.36	41
3116.19	43.5
3117.01	34
3117.84	38
3118.66	38
3119.49	43.5
3120.31	38.5
3121.13	34.5
3121.96	38.5
3122.78	37.5
3123.61	39
3124.43	39
3125.25	38.5
3126.08	41.5
3126.9	38.5
3127.73	35.5
3128.55	39
3129.37	38.5
3130.19	42.5
3131.02	38.5
3131.84	44
3132.66	37
3133.49	37.5
3134.31	36
3135.13	35
3135.95	38.5
3136.78	36.5
3137.6	37.5
3138.42	40.5
3139.24	35.5
3140.06	35
3140.88	39
3141.71	39.5
3142.53	38
3143.35	35.5
3144.17	34.5
3144.99	34
3145.81	35
3146.63	38.5
3147.45	33
3148.27	39.5
3149.09	38.5
3149.91	36.5
3150.73	34.5
3151.56	35
3152.37	39.5
3153.2	37.5
3154.01	34
3154.83	34.5
3155.65	36.5
3156.47	42.5
3157.29	33.5
3158.11	32
3158.93	32.5
3159.75	34.5
3160.57	34.5
3161.39	34
3162.21	33.5
3163.02	31
3163.84	33.5
3164.66	34.5
3165.48	37
3166.3	38
3167.11	29
3167.93	32.5
3168.75	35.5
3169.57	32.5
3170.39	36
3171.2	34.5
3172.02	33.5
3172.84	36.5
3173.65	35.5
3174.47	34
3175.29	33
3176.1	33
3176.92	37
3177.74	31
3178.55	33
3179.37	33
3180.19	35.5
3181	35.5
3181.82	34.5
3182.63	31
3183.45	29.5
3184.27	36.5
3185.08	36.5
3185.9	32.5
3186.71	31.5
3187.53	36
3188.34	33.5
3189.16	33.5
3189.97	32.5
3190.79	33
3191.6	33
3192.41	33
3193.23	33.5
3194.04	33
3194.86	34
3195.67	37.5
3196.48	34
3197.3	37
3198.11	28.5
3198.93	33.5
3199.74	32.5
3200.55	34
3201.36	32
3202.18	31
3202.99	31
3203.8	31.5
3204.62	33.5
3205.43	34
3206.24	35
3207.05	34
3207.87	31
3208.68	32
3209.49	33
3210.3	33.5
3211.11	36
3211.93	33
3212.74	33.5
3213.55	36
3214.36	35
3215.17	33
3215.98	32
3216.79	34.5
3217.6	32
3218.41	32
3219.22	34
3220.03	32.5
3220.85	34
3221.66	33.5
3222.47	30.5
3223.28	34
3224.09	32.5
3224.9	28
3225.71	36.5
3226.52	35
3227.33	37
3228.13	33.5
3228.94	33.5
3229.75	35
3230.56	31
3231.37	31
3232.18	35.5
3232.99	33.5
3233.8	35.5
3234.61	30.5
3235.41	30
3236.22	34.5
3237.03	32.5
3237.84	29
3238.65	33
3239.45	35
3240.26	31
3241.07	32.5
3241.88	31
3242.68	34
3243.49	33
3244.3	31.5
3245.1	29
3245.91	29
3246.72	32.5
3247.53	32.5
3248.33	31.5
3249.14	26
3249.95	28.5
3250.75	33
3251.56	30.5
3252.36	30
3253.17	35
3253.97	35
3254.78	27
3255.59	31.5
3256.39	33
3257.2	35
3258	30
3258.81	37
3259.61	33.5
3260.42	29
3261.22	34
3262.03	32.5
3262.83	33.5
3263.64	30.5
3264.44	31.5
3265.24	30
3266.05	31
3266.85	29.5
3267.66	32.5
3268.46	32
3269.26	32.5
3270.07	31.5
3270.87	30.5
3271.67	31
3272.48	31.5
3273.28	28
3274.08	36
3274.89	33
3275.69	31
3276.49	33
3277.29	33.5
3278.1	32
3278.9	32.5
3279.7	28.5
3280.5	31.5
3281.3	29.5
3282.11	34.5
3282.91	33
3283.71	34.5
3284.51	32.5
3285.31	32
3286.11	33
3286.91	28.5
3287.72	30.5
3288.52	29
3289.32	32
3290.12	32.5
3290.92	34
3291.72	30
3292.52	33
3293.32	31.5
3294.12	30
3294.92	31
3295.72	30.5
3296.52	36.5
3297.32	28
3298.12	31.5
3298.92	29
3299.72	31.5
3300.52	30
3301.32	32.5
3302.12	31
3302.92	32
3303.71	29
3304.51	31
3305.31	31.5
3306.11	36.5
3306.91	31.5
3307.71	32
3308.5	32.5
3309.3	33
3310.1	35
3310.9	32
3311.7	25.5
3312.49	30.5
3313.29	31.5
3314.09	29
3314.89	26
3315.68	33
3316.48	29
3317.28	28
3318.07	31.5
3318.87	32
3319.67	28.5
3320.46	32.5
3321.26	34
3322.06	29.5
3322.85	36
3323.65	30
3324.44	31
3325.24	30.5
3326.04	35
3326.83	26.5
3327.63	30
3328.42	27
3329.22	29
3330.01	30.5
3330.81	31
3331.6	32.5
3332.4	30
3333.19	31.5
3333.99	33.5
3334.78	30
3335.58	28
3336.37	25.5
3337.17	29.5
3337.96	30.5
3338.75	31
3339.55	30.5
3340.34	32
3341.13	32
3341.93	33
3342.72	33.5
3343.51	29.5
3344.31	30
3345.1	32.5
3345.89	32.5
3346.69	30
3347.48	32.5
3348.27	28
3349.06	33.5
3349.86	31.5
3350.65	27.5
3351.44	30
3352.23	33
3353.03	31
3353.82	29.5
3354.61	35
3355.4	31
3356.19	32
3356.98	33.5
3357.78	27
3358.57	31
3359.36	33
3360.15	30
3360.94	25
3361.73	29.5
3362.52	32
3363.31	35
3364.1	33.5
3364.89	32
3365.68	36
3366.47	31.5
3367.26	34.5
3368.05	33.5
3368.84	30
3369.63	28.5
3370.42	35
3371.21	33
3372	30
3372.79	28.5
3373.58	30
3374.37	35
3375.16	32
3375.95	30
3376.73	33.5
3377.52	33
3378.31	30
3379.1	32.5
3379.89	33.5
3380.68	37.5
3381.46	28
3382.25	33
3383.04	29
3383.83	30
3384.62	33.5
3385.4	29
3386.19	31
3386.98	34.5
3387.76	31.5
3388.55	29
3389.34	34
3390.13	35.5
3390.91	27
3391.7	30
3392.49	29
3393.27	29.5
3394.06	32.5
3394.84	31
3395.63	32.5
3396.42	33
3397.2	32
3397.99	28
3398.77	27
3399.56	29.5
3400.34	37.5
3401.13	31.5
3401.92	31.5
3402.7	31.5
3403.49	33.5
3404.27	29
3405.06	29.5
3405.84	27.5
3406.62	31
3407.41	31
3408.19	33
3408.98	29.5
3409.76	31.5
3410.55	30
3411.33	31.5
3412.11	31
3412.9	33.5
3413.68	31
3414.46	30
3415.25	26
3416.03	30
3416.81	33
3417.6	27
3418.38	26
3419.16	26
3419.95	29
3420.73	29.5
3421.51	25
3422.29	31
3423.08	30
3423.86	26
3424.64	32.5
3425.42	28
3426.2	30.5
3426.98	33
3427.77	30.5
3428.55	28.5
3429.33	29.5
3430.11	29
3430.89	31
3431.67	28.5
3432.45	28.5
3433.24	24
3434.02	31.5
3434.8	28
3435.58	32
3436.36	28
3437.14	29
3437.92	27.5
3438.7	31
3439.48	30
3440.26	31.5
3441.04	32.5
3441.82	30
3442.6	34
3443.38	29
3444.16	29.5
3444.94	33.5
3445.71	29.5
3446.49	31.5
3447.27	31.5
3448.05	30.5
3448.83	30.5
3449.61	28
3450.39	34
3451.17	28
3451.94	31.5
3452.72	30
3453.5	27.5
3454.28	27.5
3455.06	28
3455.83	33
3456.61	31
3457.39	29.5
3458.17	30
3458.94	29
3459.72	30.5
3460.5	26.5
3461.28	29
3462.05	30
3462.83	27.5
3463.61	34
3464.38	30.5
3465.16	28.5
3465.93	29
3466.71	29
3467.49	35
3468.26	29.5
3469.04	28.5
3469.82	30.5
3470.59	27
3471.37	27
3472.14	31.5
3472.92	34
3473.69	30
3474.47	32.5
3475.24	31.5
3476.02	36
3476.79	27
3477.57	31
3478.34	26
3479.12	36.5
3479.89	30.5
3480.67	33.5
3481.44	28.5
3482.21	29.5
3482.99	27
3483.76	29
3484.54	26
3485.31	26.5
3486.08	30
3486.86	31.5
3487.63	30
3488.4	26
3489.18	30
3489.95	31
3490.72	31.5
3491.5	32
3492.27	29.5
3493.04	30
3493.81	33
3494.59	27
3495.36	30.5
3496.13	29
3496.9	27.5
3497.67	31
3498.45	31
3499.22	30.5
3499.99	26
