#Acq. time (s)=	5
#Accumulations=	5
#Range (cm-¹)=	100...3500
#Windows=	4
#Autofocus=	Off
#AutoExposure=	Off
#Spike filter=	Multiple accum.
#Delay time (s)=	0
#Binning=	1
#Readout mode=	Signal
#DeNoise=	Off
#ICS correction=	Off
#Dark correction=	Off
#Inst. Process=	Off
#Instrument=	LabRAM HR Evol
#Detector=	Syncerity OE
#Objective=	x100_VIS
#Grating=	600 (500nm)
#ND Filter=	25%
#Laser=	633nm_Edge
#Hole=	100.021
#Range=	Visible
#Project=	verificaciones
#Sample=	a4
#Site=	plain
#Title=	bolusa4plain
#Remark=	com
#Date=	16.01.2026 12:20
#Acquired=	16.01.2026 12:20:55
100.687	29
101.971	32
103.254	35.5
104.537	33
105.82	36
107.103	32
108.387	33
109.669	28
110.951	35
112.233	33.5
113.514	36
114.796	32
116.077	34.5
117.358	33
118.639	36
119.919	33.5
121.2	32
122.48	33.5
123.76	36
125.039	34
126.319	36.5
127.598	36
128.877	36
130.156	35
131.435	42
132.713	38.5
133.992	36.5
135.268	39.5
136.546	40
137.824	37.5
139.101	42
140.378	38.5
141.655	40
142.932	42.5
144.209	45
145.485	39
146.76	37
148.036	44
149.312	44
150.587	46
151.862	43
153.138	46.5
154.411	50.5
155.686	49
156.96	53
158.235	47
159.509	47
160.781	43
162.055	44
163.328	46.5
164.602	47.5
165.873	50.5
167.146	43.5
168.419	45
169.691	46
170.962	47.5
172.234	48.5
173.506	42
174.777	47
176.047	41
177.318	44.5
178.589	45
179.859	45.5
181.129	46
182.4	45
183.668	45
184.938	48.5
186.207	52
187.476	45.5
188.746	44
190.013	47
191.282	50.5
192.551	43
193.818	51
195.086	49
196.353	48
197.621	49.5
198.887	43.5
200.154	43.5
201.422	44
202.687	40.5
203.954	44.5
205.219	42
206.486	41.5
207.751	38.5
209.017	34
210.281	41.5
211.547	40.5
212.811	37
214.076	37
215.339	38.5
216.603	38
217.867	41
219.13	36
220.395	36
221.657	40.5
222.921	38
224.183	41
225.445	36
226.708	32
227.97	36
229.232	34.5
230.493	35.5
231.754	36.5
233.016	37.5
234.277	31
235.537	30
236.799	30
238.059	31.5
239.318	36.5
240.579	32.5
241.839	35
243.098	34.5
244.358	32.5
245.617	36
246.875	30.5
248.133	31
249.393	29
250.651	34
251.908	30.5
253.166	32.5
254.424	33
255.681	31
256.938	33
258.195	30
259.451	29.5
260.709	30.5
261.965	32.5
263.221	27.5
264.476	29
265.732	32.5
266.988	34.5
268.243	28.5
269.498	31
270.753	32
272.007	28
273.261	32
274.515	30
275.769	29.5
277.022	28.5
278.277	28.5
279.53	32
280.783	28.5
282.036	28.5
283.289	28.5
284.541	28.5
285.793	27.5
287.045	30
288.297	29
289.548	31
290.8	29.5
292.051	30
293.302	28
294.552	28
295.803	29
297.053	29.5
298.303	28
299.553	24
300.803	29
302.053	30
303.302	31
304.551	29
305.8	28.5
307.047	31.5
308.296	32.5
309.544	28.5
310.792	28
312.04	35.5
313.288	35
314.535	29.5
315.783	29
317.03	31
318.275	29.5
319.522	26.5
320.768	28
322.015	31.5
323.261	29.5
324.505	28.5
325.751	25.5
326.997	28
328.242	26.5
329.487	28.5
330.73	27
331.975	30.5
333.22	30.5
334.464	29
335.707	32
336.95	32
338.194	30.5
339.438	30.5
340.68	32.5
341.923	31.5
343.166	30
344.407	29.5
345.649	32
346.892	28
348.132	32.5
349.374	25
350.616	30
351.856	24.5
353.097	32
354.337	30.5
355.578	28
356.818	29
358.058	29
359.298	29.5
360.536	25
361.776	29.5
363.016	29.5
364.254	28.5
365.493	34
366.731	30
367.97	29
369.207	27
370.446	27.5
371.683	30
372.921	32
374.157	27
375.395	32.5
376.631	28
377.868	26.5
379.104	28.5
380.341	29.5
381.576	30
382.813	24.5
384.048	25
385.284	31
386.518	31
387.753	29
388.988	29.5
390.222	29
391.457	31
392.691	29
393.924	31
395.159	30.5
396.392	27
397.624	28
398.858	28.5
400.091	27
401.323	30.5
402.556	30.5
403.788	28.5
405.019	33
406.252	29.5
407.483	29.5
408.714	28
409.945	30
411.177	31
412.407	28
413.637	30.5
414.867	31.5
416.099	26
417.328	33.5
418.558	28.5
419.787	30
421.016	27.5
422.246	27.5
423.475	28.5
424.703	32
425.931	26.5
427.159	31
428.388	28.5
429.616	28
430.843	28.5
432.071	27
433.298	28
434.524	33.5
435.751	26.5
436.977	33.5
438.204	29
439.431	31
440.657	33.5
441.883	28
443.108	25.5
444.333	31.5
445.558	28.5
446.783	31.5
448.008	29
449.232	27.5
450.457	26
451.681	28.5
452.905	27
454.128	29
455.352	28
456.575	29.5
457.798	32
459.021	33
460.244	29
461.466	34.5
462.689	29
463.909	33.5
465.131	33
466.353	31
467.575	32
468.796	32.5
470.017	36
471.238	34
472.459	37
473.679	42
474.898	37.5
476.118	46.5
477.338	43.5
478.558	49.5
479.778	50
480.997	57
482.215	61
483.434	64
484.653	67
485.871	66.5
487.09	71.5
488.307	72
489.525	72
490.743	68
491.96	71
493.176	64
494.394	62
495.611	59.5
496.826	52.5
498.043	52.5
499.259	58
500.474	45
501.69	53
502.906	46
504.121	44
505.336	40.5
506.551	40
507.765	44
508.98	38
510.195	35
511.408	37
512.622	39
513.835	39.5
515.049	34
516.263	33.5
517.475	35
518.689	35
519.9	36
521.113	30.5
522.325	33
523.537	31.5
524.748	33.5
525.961	34.5
527.171	34.5
528.383	36
529.594	31.5
530.805	34
532.015	26.5
533.226	32
534.435	29.5
535.646	28.5
536.855	34.5
538.066	34.5
539.274	30
540.483	28
541.693	28
542.901	36.5
544.11	32
545.318	28
546.526	31.5
547.734	28
548.942	31.5
550.149	26.5
551.357	28
552.563	29.5
553.77	29
554.978	29
556.184	32.5
557.389	27
558.596	27
559.802	32
561.007	31.5
562.212	30
563.419	26
564.623	29
565.828	25.5
567.032	29.5
568.238	22
569.442	29
570.646	28.5
571.849	29.5
573.054	28.5
574.257	34
575.46	31
576.663	27.5
577.866	33.5
579.068	26.5
580.272	31
581.474	28
582.676	28.5
583.877	27.5
585.079	30
586.28	28
587.481	30
588.682	30.5
589.883	27
591.083	30.5
592.285	23
593.485	31
594.685	32
595.885	28
597.084	29
598.284	28.5
599.483	32.5
600.682	30
601.881	29
603.08	27
604.278	25
605.476	25.5
606.674	28
607.872	28.5
609.07	30
610.266	26.5
611.463	29
612.661	29
613.857	31.5
615.054	31
616.251	30
617.447	30.5
618.643	29.5
619.839	24.5
621.035	31
622.229	28
623.425	27.5
624.62	30
625.815	29.5
627.01	25
628.205	30
629.398	29.5
630.592	32
631.786	29
632.98	30
634.172	34
635.366	28
636.559	32.5
637.753	29.5
638.944	29.5
640.137	25.5
641.33	31
642.522	28.5
643.713	30
644.905	32.5
646.097	32
647.287	29
648.478	28.5
649.67	27.5
650.859	29
652.05	30.5
653.241	26
654.43	28
655.621	24
656.811	30.5
657.999	24.5
659.189	30.5
660.378	32
661.567	31.5
662.755	29.5
663.944	32
665.133	32
666.32	33
667.508	31.5
668.695	33
669.884	32
671.07	31.5
672.258	34
673.444	30.5
674.631	35.5
675.817	31
677.004	30.5
678.19	34
679.376	34.5
680.561	36.5
681.746	37.5
682.932	28.5
684.117	38
685.302	37.5
686.487	36.5
687.672	33
688.856	36
690.039	34
691.224	37
692.407	36.5
693.59	36.5
694.774	38.5
695.957	38.5
697.14	39
698.323	37.5
699.505	38
700.687	44
701.87	47
703.052	51
704.233	44.5
705.414	53
706.597	55
707.778	62.5
708.958	63
710.139	53.5
711.32	54.5
712.5	53
713.68	44.5
714.86	41
716.039	39
717.22	33
718.399	34.5
719.578	33
720.757	33.5
721.935	30
723.114	27.5
724.292	29
725.471	31
726.649	30
727.827	30
729.004	31
730.182	30
731.359	28
732.536	30
733.712	27
734.889	29
736.065	25.5
737.242	28
738.418	29
739.593	28
740.769	26
741.945	29.5
743.12	32.5
744.295	27.5
745.47	29.5
746.644	27
747.819	28.5
748.993	28
750.168	27.5
751.342	32
752.515	28
753.689	31.5
754.862	25
756.036	31.5
757.209	26
758.382	27.5
759.553	29.5
760.725	30.5
761.898	28
763.07	29.5
764.242	27
765.414	31
766.584	29
767.755	29
768.927	29
770.098	25
771.269	27
772.438	30.5
773.608	26
774.779	31.5
775.949	30
777.117	32.5
778.287	31
779.457	29.5
780.626	24
781.794	30.5
782.963	32
784.132	29.5
785.299	36
786.468	34.5
787.636	35
788.803	33.5
789.971	37
791.139	32.5
792.305	29
793.472	33.5
794.638	33
795.805	33
796.972	35
798.138	27.5
799.304	30
800.469	30.5
801.635	28.5
802.801	28.5
803.966	35.5
805.131	30
806.295	28
807.461	26.5
808.624	27.5
809.789	27.5
810.952	26
812.117	27.5
813.28	30.5
814.444	28.5
815.607	28.5
816.769	31.5
817.933	29.5
819.095	28.5
820.258	27.5
821.42	28.5
822.583	21
823.744	27.5
824.905	25
826.068	28.5
827.228	29
828.389	31
829.551	26
830.711	33.5
831.871	25
833.032	28.5
834.192	29
835.352	26
836.513	30
837.672	26
838.831	27
839.99	31.5
841.15	28
842.308	23
843.466	31
844.624	26
845.784	29
846.941	28
848.099	29
849.256	26.5
850.414	28
851.572	27.5
852.729	24.5
853.886	27.5
855.042	28.5
856.198	32
857.355	32
858.512	30.5
859.668	31.5
860.823	33
861.979	25.5
863.134	30.5
864.289	30
865.444	28.5
866.599	29
867.753	29.5
868.908	28
870.062	27.5
871.216	29.5
872.37	29
873.523	29.5
874.677	30.5
875.83	22.5
876.983	28.5
878.136	28
879.289	29
880.441	28
881.594	25
882.746	27.5
883.898	23
885.05	28.5
886.201	27.5
887.353	29
888.504	29
889.655	26
890.806	28
891.956	25
893.107	27.5
894.257	25.5
895.407	26
896.557	29.5
897.707	29.5
898.856	23
900.005	30.5
901.154	23
902.304	30.5
903.453	30
904.6	27
905.749	28.5
906.897	26.5
908.046	26.5
909.192	28.5
910.34	26
911.488	27
912.634	28.5
913.782	28.5
914.929	31
916.076	23
917.222	26.5
918.368	25
919.515	25
920.66	27
921.806	25
922.951	29
924.097	27
925.242	26
926.387	26.5
927.532	30
928.676	30
929.821	28
930.965	24.5
932.109	26.5
933.253	24.5
934.396	25
935.54	27.5
936.683	28
937.826	24.5
938.969	26
940.112	28
941.254	28
942.397	29.5
943.538	25
944.681	26.5
945.822	23.5
946.964	29
948.105	30
949.246	26
950.388	23
951.528	24
952.669	23.5
953.809	28
954.949	25.5
956.09	29
957.229	27
958.369	29
959.509	25
960.648	26.5
961.786	25.5
962.926	25
964.065	26
965.203	27
966.342	26.5
967.48	28
968.618	27
969.755	27.5
970.894	28
972.031	27
973.168	24
974.305	28.5
975.441	27.5
976.579	28
977.715	27
978.851	23.5
979.987	29
981.123	24
982.26	31
983.395	30.5
984.531	27
985.666	25.5
986.8	26
987.935	24
989.07	28
990.204	19.5
991.338	24.5
992.472	28
993.607	26
994.741	25.5
995.874	27.5
997.008	24
998.141	25
999.274	23
1000.41	27.5
1001.54	24.5
1002.67	27
1003.8	23
1004.94	29
1006.07	26.5
1007.2	27
1008.33	30.5
1009.46	25
1010.59	27.5
1011.72	26
1012.85	23
1013.99	22.5
1015.12	28.5
1016.25	24.5
1017.38	28
1018.51	25
1019.63	27
1020.76	24
1021.89	26.5
1023.02	26
1024.15	26
1025.28	26
1026.41	23
1027.54	27
1028.67	23.5
1029.79	26.5
1030.92	25
1032.05	23.5
1033.18	28
1034.3	24.5
1035.43	24
1036.56	27.5
1037.68	25.5
1038.81	27.5
1039.94	29
1041.06	25
1042.19	26
1043.31	24
1044.44	24.5
1045.57	24
1046.69	27.5
1047.82	28
1048.94	26
1050.07	28.5
1051.19	21.5
1052.31	26
1053.44	26.5
1054.56	26.5
1055.69	30
1056.81	29
1057.93	24.5
1059.06	24
1060.18	25
1061.3	29
1062.42	25.5
1063.55	27
1064.67	30
1065.79	27.5
1066.91	27
1068.03	27.5
1069.16	27.5
1070.28	22
1071.4	29
1072.52	32.5
1073.64	27.5
1074.76	27.5
1075.88	28
1077	26.5
1078.12	23.5
1079.24	23
1080.36	26.5
1081.48	24
1082.6	26
1083.72	28.5
1084.84	26
1085.96	26
1087.08	29.5
1088.2	27
1089.31	25
1090.43	26
1091.55	27
1092.67	26
1093.78	27.5
1094.9	26.5
1096.02	30
1097.14	23
1098.25	25
1099.37	22
1100.49	29
1101.6	26
1102.72	23
1103.83	21.5
1104.95	25.5
1106.07	22
1107.18	25.5
1108.3	27.5
1109.41	25
1110.52	27
1111.64	25
1112.75	28.5
1113.87	29
1114.98	24
1116.1	29
1117.21	26.5
1118.32	27
1119.44	26.5
1120.55	24.5
1121.66	27
1122.78	24.5
1123.89	26
1125	23.5
1126.11	22
1127.23	26.5
1128.34	23.5
1129.45	29.5
1130.56	23.5
1131.67	27.5
1132.78	25
1133.89	24.5
1135	24
1136.12	21
1137.23	24.5
1138.34	26.5
1139.45	24
1140.56	28
1141.67	29.5
1142.78	26
1143.89	24
1144.99	22.5
1146.1	27.5
1147.21	24.5
1148.32	23.5
1149.43	26.5
1150.54	23
1151.65	25
1152.75	24.5
1153.86	24
1154.97	24.5
1156.08	25
1157.18	29
1158.29	29
1159.4	24
1160.5	24
1161.61	20
1162.72	22
1163.82	28.5
1164.93	28
1166.03	23
1167.14	27
1168.24	29
1169.35	23
1170.45	25
1171.56	24
1172.66	24
1173.77	25
1174.87	27
1175.98	21.5
1177.08	29
1178.19	24.5
1179.29	28.5
1180.39	25.5
1181.5	24.5
1182.6	23
1183.7	26.5
1184.8	21
1185.91	26
1187.01	24.5
1188.11	22.5
1189.21	24.5
1190.32	24
1191.42	25
1192.52	23
1193.62	27.5
1194.72	25.4913
1195.82	24.5247
1196.92	27.9343
1198.02	25.5242
1199.12	22.5929
1200.22	24.9029
1201.32	26.8274
1202.42	25.8817
1203.52	26.4571
1204.62	26.9787
1205.72	22.5834
1206.82	26.7852
1207.92	21.5101
1209.02	20.5623
1210.12	25.9237
1211.22	26.7945
1212.31	29.3978
1213.41	25.671
1214.51	22.6728
1215.61	23.7488
1216.71	25.624
1217.8	26.6047
1218.9	26
1220	26.761
1221.09	21.9625
1222.19	23.9285
1223.29	26.256
1224.38	25.2019
1225.48	23.0099
1226.58	29.5463
1227.67	26.0564
1228.77	26.912
1229.86	24.8689
1230.96	24.8731
1232.05	25.6869
1233.15	26.8342
1234.24	24.4058
1235.34	24.7024
1236.43	23.2309
1237.52	26.0195
1238.62	28.0253
1239.71	27.9905
1240.81	26.0845
1241.9	25.733
1242.99	25.3509
1244.09	25.8353
1245.18	25.5485
1246.27	25.3661
1247.36	25.9071
1248.46	26.3339
1249.55	28.004
1250.64	23.7889
1251.73	25.9723
1252.82	23.9862
1253.92	25.6804
1255.01	28.0752
1256.1	29.09
1257.19	26.4338
1258.28	29.8019
1259.37	28.8344
1260.46	27.4368
1261.55	25.1162
1262.64	26.1463
1263.73	27.3605
1264.82	29.0607
1265.91	27.7503
1267	26.176
1268.09	27.5195
1269.18	26.9976
1270.27	24.8278
1271.36	23.7442
1272.45	25.5379
1273.53	27.864
1274.62	26.1695
1275.71	23.5126
1276.8	23.221
1277.89	23.823
1278.97	23.7511
1280.06	22.4609
1281.15	24.0919
1282.23	25.2816
1283.32	21.65
1284.41	25.0088
1285.49	24.9053
1286.58	25.9827
1287.67	26.7449
1288.75	26.199
1289.84	26.4841
1290.92	24.1164
1292.01	23.2855
1293.09	24.1812
1294.18	26.2697
1295.26	26.6554
1296.35	24.7793
1297.43	26.6032
1298.52	28.882
1299.6	24.144
1300.69	26.4066
1301.77	27.651
1302.85	23.1315
1303.94	22.2637
1305.02	20.7459
1306.1	21.0706
1306.42	21.5
1307.51	25.5
1308.59	24.5
1309.68	24
1310.77	22
1311.86	23.5
1312.95	24
1314.03	24.5
1315.12	22.5
1316.21	29
1317.29	22
1318.38	23.5
1319.47	22.5
1320.55	26
1321.64	26
1322.72	26
1323.81	24
1324.89	23
1325.98	23.5
1327.07	26.5
1328.15	25.5
1329.24	27
1330.32	24.5
1331.4	29.5
1332.49	22.5
1333.57	26
1334.66	18.5
1335.74	25.5
1336.82	22
1337.91	22.5
1338.99	26
1340.07	26.5
1341.16	23
1342.24	24
1343.32	23.5
1344.4	26.5
1345.49	21
1346.57	24.5
1347.65	27.5
1348.73	23
1349.81	28
1350.9	23
1351.98	27
1353.06	22.5
1354.14	24
1355.22	27
1356.3	22
1357.38	24
1358.46	29
1359.54	25.5
1360.62	25.5
1361.7	25.5
1362.78	25.5
1363.86	24
1364.94	27
1366.02	24.5
1367.1	26.5
1368.17	24.5
1369.25	27.5
1370.33	23
1371.41	27
1372.49	24.5
1373.57	27
1374.64	27.5
1375.72	26
1376.8	25.5
1377.87	26
1378.95	25
1380.03	25.5
1381.1	22.5
1382.18	27
1383.26	26.5
1384.33	27.5
1385.41	28
1386.49	26
1387.56	28.5
1388.64	31.5
1389.71	24.5
1390.79	31.5
1391.86	28.5
1392.94	24.5
1394.01	27
1395.08	28
1396.16	32
1397.23	29
1398.31	30
1399.38	31
1400.45	29.5
1401.53	30.5
1402.6	33.5
1403.67	29
1404.75	30
1405.82	32
1406.89	31.5
1407.96	30
1409.04	30
1410.11	32.5
1411.18	31.5
1412.25	30
1413.32	30.5
1414.39	35
1415.47	31
1416.54	30
1417.61	30.5
1418.68	30
1419.75	27
1420.82	26
1421.89	27
1422.96	28
1424.03	29
1425.1	28.5
1426.17	31
1427.24	25
1428.31	31.5
1429.38	28
1430.44	25
1431.51	25
1432.58	25.5
1433.65	30.5
1434.72	20.5
1435.79	27
1436.85	29.5
1437.92	25.5
1438.99	25
1440.05	24
1441.12	28.5
1442.19	27.5
1443.26	24.5
1444.32	27.5
1445.39	28
1446.46	25
1447.52	27
1448.59	25
1449.65	23.5
1450.72	24.5
1451.78	28
1452.85	25
1453.91	26.5
1454.98	25
1456.04	26
1457.11	26.5
1458.17	26
1459.24	29
1460.3	25.5
1461.36	24
1462.43	28
1463.49	28.5
1464.56	22.5
1465.62	26.5
1466.68	25.5
1467.74	26.5
1468.81	27.5
1469.87	27
1470.93	27.5
1471.99	31.5
1473.06	27.5
1474.12	27
1475.18	26
1476.24	29
1477.3	25
1478.36	29
1479.42	25.5
1480.49	23
1481.55	27
1482.61	30.5
1483.67	25
1484.73	27
1485.79	26
1486.85	29
1487.91	24.5
1488.97	30.5
1490.03	27.5
1491.09	31.5
1492.14	27.5
1493.2	27.5
1494.26	29
1495.32	26.5
1496.38	25
1497.44	27.5
1498.49	24.5
1499.55	23.5
1500.61	27.5
1501.67	27.5
1502.72	26
1503.78	26.5
1504.84	28.5
1505.89	22
1506.95	28
1508.01	29.5
1509.07	24
1510.12	28
1511.18	25.5
1512.23	28.5
1513.29	30.5
1514.34	23
1515.4	28.5
1516.45	24.5
1517.51	24
1518.56	28
1519.62	25
1520.67	26.5
1521.73	28
1522.78	28
1523.84	24.5
1524.89	30.5
1525.94	24
1527	27
1528.05	26
1529.1	25.5
1530.16	27.5
1531.21	24
1532.26	28
1533.32	29
1534.37	26.5
1535.42	27
1536.47	26
1537.52	26
1538.57	29
1539.63	26
1540.68	29
1541.73	27
1542.78	27
1543.83	24
1544.88	22
1545.93	27
1546.98	26
1548.03	22
1549.08	26
1550.13	27
1551.18	28.5
1552.23	27.5
1553.28	26.5
1554.33	24
1555.38	26.5
1556.43	26.5
1557.48	30
1558.53	25
1559.57	25
1560.62	25.5
1561.67	29
1562.72	24.5
1563.77	25.5
1564.81	25
1565.86	23.5
1566.91	25
1567.96	27
1569	26
1570.05	23.5
1571.09	27
1572.14	30.5
1573.19	25
1574.23	24
1575.28	25.5
1576.33	27
1577.37	25
1578.42	27.5
1579.46	26
1580.51	26.5
1581.55	24
1582.6	27.5
1583.64	25
1584.69	24.5
1585.73	29.5
1586.77	26
1587.82	30.5
1588.86	26
1589.91	27
1590.95	24
1591.99	26.5
1593.04	28.5
1594.08	25
1595.12	24.5
1596.16	30
1597.21	28.5
1598.25	26
1599.29	26
1600.33	23
1601.37	25.5
1602.42	24.5
1603.46	21.5
1604.5	24
1605.54	24
1606.58	30
1607.62	25
1608.66	25
1609.7	22.5
1610.74	24
1611.78	28.5
1612.82	24.5
1613.86	24.5
1614.9	27.5
1615.94	26
1616.98	20.5
1618.02	26
1619.06	27.5
1620.1	26
1621.14	24
1622.18	26
1623.21	25
1624.25	24.5
1625.29	24.5
1626.33	24
1627.37	29.5
1628.4	26
1629.44	22
1630.48	23
1631.52	25
1632.55	25.5
1633.59	29
1634.63	26
1635.66	27.5
1636.7	27
1637.73	27
1638.77	23
1639.81	26.5
1640.84	25
1641.88	28.5
1642.91	22
1643.95	26.5
1644.98	26
1646.02	22
1647.05	24.5
1648.09	23.5
1649.12	25.5
1650.16	28
1651.19	22
1652.22	25.5
1653.26	24
1654.29	27
1655.32	25
1656.36	28
1657.39	27.5
1658.42	28
1659.46	25
1660.49	26
1661.52	25
1662.55	26.5
1663.59	24.5
1664.62	24
1665.65	28.5
1666.68	27
1667.71	25.5
1668.74	29
1669.77	24.5
1670.81	25.5
1671.84	28
1672.87	22.5
1673.9	22.5
1674.93	26
1675.96	25.5
1676.99	26
1678.02	28
1679.05	30.5
1680.08	27.5
1681.11	28
1682.13	28
1683.16	22.5
1684.19	25
1685.22	26.5
1686.25	26
1687.28	23.5
1688.31	26.5
1689.33	28
1690.36	25.5
1691.39	26
1692.42	28
1693.45	27
1694.47	28
1695.5	27
1696.53	24.5
1697.55	24.5
1698.58	26.5
1699.61	27
1700.63	25
1701.66	23.5
1702.68	20
1703.71	19
1704.74	26.5
1705.76	23
1706.79	22.5
1707.81	24
1708.84	27.5
1709.86	26
1710.89	24.5
1711.91	26
1712.94	24.5
1713.96	26.5
1714.98	26.5
1716.01	26.5
1717.03	28
1718.05	27
1719.08	25
1720.1	23.5
1721.12	25
1722.15	27
1723.17	24.5
1724.19	25.5
1725.22	29.5
1726.24	27
1727.26	23
1728.28	26
1729.3	24
1730.32	30
1731.35	27
1732.37	23.5
1733.39	29
1734.41	25
1735.43	24
1736.45	24
1737.47	30
1738.49	30
1739.51	25
1740.53	28.5
1741.55	26
1742.57	25.5
1743.59	28.5
1744.61	25.5
1745.63	27
1746.65	27.5
1747.67	22.5
1748.69	26
1749.71	26
1750.72	25
1751.74	25
1752.76	24
1753.78	26
1754.8	25
1755.81	27.5
1756.83	23.5
1757.85	27
1758.87	24.5
1759.88	26.5
1760.9	25
1761.92	25
1762.93	22.5
1763.95	29
1764.97	28
1765.98	22.5
1767	25.5
1768.01	23.5
1769.03	26.5
1770.05	24.5
1771.06	27.5
1772.08	26.5
1773.09	28
1774.11	31
1775.12	24.5
1776.13	24.5
1777.15	27
1778.16	22
1779.18	20.5
1780.19	24
1781.2	29
1782.22	24
1783.23	23.5
1784.24	29
1785.26	27.5
1786.27	22.5
1787.28	28
1788.3	23.5
1789.31	23
1790.32	24.5
1791.33	27
1792.35	24
1793.36	26
1794.37	26
1795.38	24.5
1796.39	23.5
1797.4	26
1798.41	27.5
1799.43	26.5
1800.44	23.5
1801.45	29
1802.46	24.5
1803.47	23.5
1804.48	23
1805.49	25.5
1806.5	21
1807.51	24.5
1808.52	25.5
1809.53	25.5
1810.53	28.5
1811.54	26.5
1812.55	25
1813.56	30.5
1814.57	24
1815.58	27
1816.59	26.5
1817.6	23.5
1818.6	26.5
1819.61	24.5
1820.62	26
1821.63	23.5
1822.63	26.5
1823.64	23
1824.65	27.5
1825.65	25
1826.66	26.5
1827.67	23.5
1828.67	20.5
1829.68	22.5
1830.69	24
1831.69	25
1832.7	28.5
1833.7	26.5
1834.71	27
1835.71	19
1836.72	23
1837.72	27
1838.73	24
1839.73	26
1840.74	25.5
1841.74	17
1842.75	24
1843.75	25.5
1844.75	31
1845.76	26.5
1846.76	28
1847.76	23
1848.77	25
1849.77	28.5
1850.77	24.5
1851.78	24
1852.78	28
1853.78	26
1854.78	31.5
1855.79	25
1856.79	23.5
1857.79	25.5
1858.79	23
1859.79	25.5
1860.8	27
1861.8	21.5
1862.8	24.5
1863.8	30
1864.8	25.5
1865.8	25.5
1866.8	23
1867.8	24.5
1868.8	25.5
1869.8	25.5
1870.8	22
1871.8	25
1872.8	24.5
1873.8	23
1874.8	25
1875.8	24
1876.8	21.5
1877.8	25
1878.79	25.5
1879.79	25.5
1880.79	24
1881.79	27
1882.79	26
1883.79	27
1884.78	20.5
1885.78	24
1886.78	24
1887.77	23.5
1888.77	25.5
1889.77	23
1890.77	23
1891.76	27
1892.76	25.5
1893.76	24.5
1894.75	25.5
1895.75	29
1896.74	26.5
1897.74	22.5
1898.73	25.5
1899.73	22
1900.72	26.5
1901.72	21.5
1902.72	25
1903.71	27
1904.7	26
1905.7	25
1906.69	25
1907.69	23
1908.68	27.5
1909.67	25.5
1910.67	24
1911.66	21
1912.66	23
1913.65	26
1914.64	27.5
1915.63	23
1916.63	26.5
1917.62	26.5
1918.61	23
1919.6	24.5
1920.6	23
1921.59	24.5
1922.58	25.5
1923.57	29
1924.56	27
1925.56	25
1926.55	23.5
1927.54	26.5
1928.53	26
1929.52	24
1930.51	27
1931.5	23
1932.49	23.5
1933.48	25
1934.47	22.5
1935.46	25
1936.45	27
1937.44	25.5
1938.43	25.5
1939.42	29
1940.41	25.5
1941.4	23.5
1942.39	20.5
1943.37	26.5
1944.36	28
1945.35	26
1946.34	23.5
1947.33	24.5
1948.32	25.75
1949.3	25.5
1950.29	26
1951.28	21
1952.27	29
1953.25	21.5
1954.24	23
1955.23	26
1956.21	24.5
1957.2	23.5
1958.19	28
1959.17	24.5
1960.16	25
1961.14	21
1962.13	24
1963.12	26.5
1964.1	26
1965.09	26.5
1966.07	21
1967.06	23
1968.04	26
1969.03	27.5
1970.01	23.5
1970.99	23
1971.98	23.5
1972.96	26.5
1973.95	26.5
1974.93	27
1975.92	26.5
1976.9	25
1977.88	23
1978.87	26.5
1979.85	24.5
1980.83	29.5
1981.81	22
1982.8	19
1983.78	26
1984.76	24
1985.74	23.5
1986.73	26
1987.71	22
1988.69	22.5
1989.67	25
1990.65	28
1991.63	26.5
1992.61	26
1993.59	24
1994.58	25
1995.56	25
1996.54	27
1997.52	27
1998.5	26
1999.48	24
2000.46	23.5
2001.44	19.5
2002.42	20.5
2003.4	26
2004.38	25
2005.35	23
2006.33	26
2007.31	25
2008.29	21
2009.27	25.5
2010.25	19.5
2011.23	25
2012.2	23.5
2013.18	26.5
2014.16	22
2015.14	27
2016.11	23.5
2017.09	22
2018.07	26
2019.05	26.5
2020.02	23
2021	21
2021.98	25
2022.95	27
2023.93	22.5
2024.91	25.5
2025.88	23
2026.86	25
2027.83	23
2028.81	22
2029.78	22
2030.76	24
2031.73	22.5
2032.71	21
2033.68	20
2034.66	26.5
2035.63	28.5
2036.61	25
2037.58	21.5
2038.56	22.5
2039.53	25
2040.5	24.5
2041.48	23.5
2042.45	22.5
2043.42	25
2044.4	23
2045.37	21
2046.34	25.5
2047.32	20
2048.29	24
2049.26	20
2050.23	25
2051.2	23
2052.18	22
2053.15	20.5
2054.12	26.5
2055.09	23.5
2056.06	26
2057.03	27
2058	23.5
2058.98	23
2059.95	25.5
2060.92	22
2061.89	25.5
2062.86	25.5
2063.83	25
2064.8	24
2065.77	22
2066.74	23
2067.71	24.5
2068.68	26.5
2069.65	23
2070.61	23
2071.58	25
2072.55	22
2073.52	27
2074.49	28.5
2075.46	22.5
2076.43	24.5
2077.4	19.5
2078.36	23.5
2079.33	26.5
2080.3	27.5
2081.27	25
2082.23	22.5
2083.2	19
2084.17	25.5
2085.13	24
2086.1	27.5
2087.07	21.5
2088.03	21
2089	27
2089.97	23
2090.93	26.5
2091.9	23
2092.86	26
2093.83	24
2094.8	25.5
2095.76	22.5
2096.73	22
2097.69	20.5
2098.66	25
2099.62	21
2100.58	28.5
2101.55	25.5
2102.51	17.5
2103.48	21.5
2104.44	21.5
2105.41	22.5
2106.37	23
2107.33	24
2108.3	24
2109.26	23.5
2110.22	22
2111.19	25.5
2112.15	25.5
2113.11	24
2114.07	20.5
2115.04	26
2116	27.5
2116.96	24
2117.92	25.5
2118.88	27
2119.85	27.5
2120.81	26.5
2121.77	22
2122.73	21.5
2123.69	25
2124.65	25
2125.61	25
2126.57	24
2127.53	27
2128.49	26.5
2129.45	24
2130.41	24
2131.37	24
2132.33	24
2133.29	23.5
2134.25	21
2135.21	24
2136.17	21
2137.13	26.5
2138.09	23.5
2139.05	25
2140.01	23.5
2140.96	26
2141.92	25.5
2142.88	22.9975
2143.84	23.9338
2144.8	20.5234
2145.75	19.0563
2146.71	22.9725
2147.67	22.0744
2148.63	26.0242
2149.58	23.0177
2150.54	24.8291
2151.5	22.3629
2152.45	24.0649
2153.41	21.3575
2154.37	20.5607
2155.32	24.5176
2156.28	20.679
2157.23	24.5828
2158.19	23.6935
2159.15	25.954
2160.1	21.219
2161.06	20.931
2162.01	24.2592
2162.97	25.3013
2163.92	24.3629
2164.88	24.0807
2165.83	22.6257
2166.78	23.1522
2167.74	25.6451
2168.69	25.3681
2169.65	21.2078
2170.6	22.4041
2171.56	22.5517
2172.51	24.1611
2173.46	22.0739
2174.42	22.8418
2175.37	23.3252
2176.32	21.7436
2177.28	22.3888
2178.23	18.8286
2179.18	19.9829
2180.13	23.5539
2181.08	24.4118
2182.04	23.4571
2182.99	22.6284
2183.94	25.7977
2184.89	24.1359
2185.84	23.2454
2186.8	21.8785
2187.75	25.3746
2188.7	24.0086
2189.65	24.7671
2190.6	22.1174
2191.55	22.2852
2192.5	23.7269
2193.45	22.7816
2194.4	24.2367
2195.35	24.9612
2196.3	22.7322
2197.25	23.9906
2198.2	20.8641
2199.15	21.4033
2200.1	22.0983
2201.05	21.5532
2202	21.4777
2202.95	22.6505
2203.9	23.2167
2204.85	24.3341
2205.79	23.664
2206.74	23.6553
2207.69	23.8081
2208.64	22.9104
2209.59	25.0528
2210.53	22.0609
2211.48	23.2653
2212.43	21.4198
2213.38	24.1268
2214.32	21.7878
2215.27	22.4287
2216.22	21.8331
2217.17	22.5852
2218.11	23.0916
2219.06	20.2146
2220.01	24.5287
2220.95	22.8305
2221.9	23.716
2222.84	22.8646
2223.79	22.8285
2224.73	22.1926
2225.68	21.8131
2226.63	24.7048
2227.57	23.326
2228.52	22.2891
2229.46	23.2815
2230.41	18.8169
2231.35	18.6516
2232.3	21.3029
2233.24	20.7117
2234.18	19.7571
2235.13	22.5153
2236.07	22.0566
2237.02	22.2802
2237.96	23.586
2238.9	22.4493
2239.85	22.0073
2240.08	22
2241.03	20.5
2241.97	23
2242.92	27.5
2243.87	22
2244.82	22
2245.76	21.5
2246.71	26
2247.66	23.5
2248.61	29
2249.55	21.5
2250.5	23
2251.45	21.5
2252.39	22
2253.34	22
2254.29	26
2255.23	21.5
2256.18	24
2257.12	21.5
2258.07	26.5
2259.01	23
2259.96	21
2260.9	24
2261.85	24.5
2262.79	18
2263.74	24
2264.68	23
2265.63	23
2266.57	22
2267.52	23.5
2268.46	24
2269.41	23
2270.35	23.5
2271.29	22
2272.24	20.5
2273.18	23
2274.12	25.5
2275.07	21
2276.01	21
2276.95	22.5
2277.89	22.5
2278.84	24.5
2279.78	24.5
2280.72	25
2281.66	23
2282.6	20
2283.55	26
2284.49	21.5
2285.43	22.5
2286.37	25
2287.31	26
2288.25	23
2289.2	20.5
2290.14	22
2291.08	21
2292.02	27.5
2292.96	24
2293.9	22
2294.84	24
2295.78	21.5
2296.72	23.5
2297.66	24
2298.6	22
2299.54	24.5
2300.48	22.5
2301.42	23.5
2302.35	25
2303.29	22.5
2304.23	24
2305.17	23
2306.11	23.5
2307.05	25.5
2307.99	26
2308.92	24
2309.86	17.5
2310.8	30
2311.74	27
2312.67	28
2313.61	22
2314.55	26
2315.49	20
2316.42	25
2317.36	22.5
2318.3	25
2319.23	23
2320.17	23.5
2321.1	19
2322.04	27
2322.98	25.5
2323.91	22
2324.85	24.5
2325.78	25.5
2326.72	22
2327.66	25.5
2328.59	24
2329.52	25.5
2330.46	22
2331.39	25
2332.33	23
2333.26	27.5
2334.2	27.5
2335.13	20
2336.07	24
2337	19
2337.93	21
2338.87	21
2339.8	21
2340.73	25
2341.67	23
2342.6	18.5
2343.53	25
2344.46	25
2345.4	20.5
2346.33	21.5
2347.26	23
2348.19	22.5
2349.13	21
2350.06	26
2350.99	24.5
2351.92	22
2352.85	29
2353.79	22
2354.72	26
2355.65	24
2356.58	23
2357.51	25
2358.44	25
2359.37	25.5
2360.3	23
2361.23	24
2362.16	22
2363.09	24
2364.02	25.5
2364.95	21.5
2365.88	26
2366.81	25.5
2367.74	21.5
2368.67	23.5
2369.6	23
2370.53	24.5
2371.45	22.5
2372.38	23.5
2373.31	23.5
2374.24	23
2375.17	26.5
2376.1	24.5
2377.02	23
2377.95	25
2378.88	23
2379.81	21.5
2380.73	20.5
2381.66	23
2382.59	24.5
2383.52	26
2384.44	25
2385.37	17
2386.3	21.5
2387.22	21
2388.15	26
2389.07	27
2390	25
2390.93	18
2391.85	26
2392.78	26.5
2393.7	23.5
2394.63	23
2395.55	24
2396.48	20.5
2397.4	23
2398.33	24.5
2399.25	27
2400.18	25
2401.1	22
2402.03	23
2402.95	20.5
2403.87	25
2404.8	22.5
2405.72	25
2406.64	25
2407.57	23
2408.49	22.5
2409.41	26.5
2410.34	24.5
2411.26	22.5
2412.18	21.5
2413.1	24
2414.03	25
2414.95	21.5
2415.87	19.5
2416.79	27
2417.72	24.5
2418.64	19.5
2419.56	27
2420.48	24.5
2421.4	22.5
2422.32	26
2423.24	24.5
2424.16	22
2425.09	23.5
2426.01	22
2426.93	24
2427.85	24.5
2428.77	26
2429.69	26.5
2430.61	23.5
2431.53	23
2432.45	23.5
2433.37	25
2434.29	22
2435.21	21.5
2436.12	25
2437.04	25
2437.96	25
2438.88	25
2439.8	23
2440.72	26
2441.64	24
2442.55	28.5
2443.47	25.5
2444.39	20.5
2445.31	24
2446.23	24
2447.14	20
2448.06	24
2448.98	24
2449.9	24.5
2450.81	24.5
2451.73	23
2452.65	23.5
2453.56	22
2454.48	19.5
2455.39	22.5
2456.31	21.5
2457.23	24.5
2458.14	24.5
2459.06	25
2459.97	24
2460.89	23.5
2461.8	27
2462.72	25
2463.64	27
2464.55	24.5
2465.47	24
2466.38	23.5
2467.29	24
2468.21	27.5
2469.12	23.5
2470.04	26
2470.95	23
2471.86	27
2472.78	21
2473.69	22.5
2474.61	20
2475.52	22.5
2476.43	24
2477.35	22.5
2478.26	21
2479.17	25.5
2480.08	25.5
2481	25.5
2481.91	26
2482.82	22
2483.73	25
2484.64	22.5
2485.56	27
2486.47	25.5
2487.38	26
2488.29	24.5
2489.2	25
2490.11	25.5
2491.03	25.5
2491.94	23.5
2492.85	27
2493.76	27
2494.67	27
2495.58	23
2496.49	24
2497.4	25
2498.31	23.5
2499.22	28.5
2500.13	27
2501.04	23
2501.95	24.5
2502.86	30.5
2503.77	23
2504.67	23
2505.58	25
2506.49	21
2507.4	26
2508.31	23
2509.22	26.5
2510.13	24
2511.03	25
2511.94	26.5
2512.85	21.5
2513.76	23
2514.66	23
2515.57	30
2516.48	22.5
2517.39	23
2518.29	24
2519.2	17
2520.11	24.5
2521.01	27
2521.92	22
2522.83	27.5
2523.73	25.5
2524.64	22.5
2525.54	25
2526.45	25
2527.36	27
2528.26	24
2529.17	23
2530.07	25.5
2530.98	24.5
2531.88	27
2532.79	25.5
2533.69	20
2534.6	20.5
2535.5	26
2536.41	24
2537.31	23.5
2538.21	25
2539.12	25
2540.02	19
2540.93	23
2541.83	26.5
2542.73	22
2543.64	23
2544.54	25.5
2545.44	25.5
2546.34	27
2547.25	25.5
2548.15	24
2549.05	27.5
2549.96	25
2550.86	22
2551.76	28
2552.66	22.5
2553.56	27.5
2554.46	25.5
2555.37	22.5
2556.27	22
2557.17	21.5
2558.07	23
2558.97	25
2559.87	24.5
2560.77	24
2561.67	27.5
2562.57	25
2563.47	20.5
2564.37	26
2565.27	26.5
2566.17	20
2567.07	23
2567.97	23.5
2568.87	26
2569.77	28.5
2570.67	29
2571.57	27.5
2572.47	27
2573.37	27
2574.27	27
2575.17	25
2576.06	21.5
2576.96	25.5
2577.86	25
2578.76	20
2579.66	23
2580.56	21.5
2581.45	23
2582.35	25
2583.25	25
2584.15	25.5
2585.04	20.5
2585.94	24.5
2586.84	25
2587.73	25
2588.63	23
2589.53	26.5
2590.42	24.5
2591.32	17.5
2592.22	27
2593.11	25
2594.01	23.5
2594.9	25.5
2595.8	25
2596.69	25.5
2597.59	23.5
2598.48	23
2599.38	28
2600.28	27.5
2601.17	24
2602.06	26.5
2602.96	25
2603.85	24
2604.75	20
2605.64	25
2606.54	25
2607.43	25
2608.32	27
2609.22	25.5
2610.11	23
2611	24.5
2611.9	23
2612.79	21.5
2613.68	24
2614.58	24.5
2615.47	24.5
2616.36	24.5
2617.25	19
2618.15	25
2619.04	26
2619.93	24
2620.82	26
2621.71	27
2622.61	23
2623.5	24.5
2624.39	25.5
2625.28	25
2626.17	22.5
2627.06	27
2627.95	27
2628.84	26.5
2629.74	29.5
2630.63	21.5
2631.52	23
2632.41	26.5
2633.3	23
2634.19	24.5
2635.08	22
2635.97	23.5
2636.85	22
2637.74	26
2638.63	25.5
2639.52	27
2640.41	27.5
2641.3	27
2642.19	24.5
2643.08	27
2643.97	24
2644.86	27
2645.74	27
2646.63	25
2647.52	26
2648.41	19
2649.3	25.5
2650.18	26.5
2651.07	22
2651.96	30
2652.85	28
2653.73	19.5
2654.62	30
2655.51	25
2656.39	25
2657.28	28
2658.17	22.5
2659.05	22.5
2659.94	25
2660.83	25.5
2661.71	23
2662.6	23
2663.48	27.5
2664.37	21
2665.25	24.5
2666.14	25
2667.02	24.5
2667.91	26.5
2668.79	26
2669.68	23.5
2670.56	26
2671.45	24
2672.33	22
2673.22	25
2674.1	23
2674.98	24.5
2675.87	29
2676.75	27
2677.64	23.5
2678.52	23
2679.4	21.5
2680.29	26
2681.17	24
2682.05	23.5
2682.94	26.5
2683.82	26
2684.7	23
2685.58	24.5
2686.47	24
2687.35	23.5
2688.23	23.5
2689.11	24.5
2689.99	24
2690.88	26.5
2691.76	22.5
2692.64	27.5
2693.52	22
2694.4	25.5
2695.28	26
2696.16	24
2697.04	24
2697.92	21
2698.8	24
2699.69	27
2700.57	21
2701.45	24.5
2702.33	20.5
2703.21	24.5
2704.09	23.5
2704.97	26.5
2705.84	26.5
2706.72	19.5
2707.6	26
2708.48	24.5
2709.36	27.5
2710.24	26
2711.12	26
2712	27
2712.88	24.5
2713.75	21
2714.63	22.5
2715.51	24.5
2716.39	26.5
2717.27	25
2718.14	23.5
2719.02	27.5
2719.9	25
2720.78	22.5
2721.65	27
2722.53	25.5
2723.41	25.5
2724.28	22
2725.16	25.5
2726.04	23.5
2726.92	27
2727.79	24.5
2728.67	25
2729.54	23.5
2730.42	25
2731.3	26
2732.17	23
2733.05	27
2733.92	26.5
2734.8	25.5
2735.67	21
2736.55	23
2737.42	22.5
2738.3	23.5
2739.17	23
2740.05	24
2740.92	25
2741.79	26.5
2742.67	25
2743.54	21
2744.42	25.5
2745.29	25.5
2746.16	26.5
2747.04	24
2747.91	28
2748.78	22
2749.66	26.5
2750.53	25
2751.4	22.5
2752.28	25.5
2753.15	25
2754.02	27
2754.89	26.5
2755.77	27.5
2756.64	24
2757.51	25.5
2758.38	25
2759.25	26
2760.13	25
2761	27
2761.87	24.5
2762.74	27
2763.61	28.5
2764.48	25.5
2765.35	24.5
2766.22	26.5
2767.09	27.5
2767.96	26
2768.83	23
2769.71	25
2770.57	24.5
2771.44	27.5
2772.32	21
2773.18	25.5
2774.05	26
2774.92	26.5
2775.79	26
2776.66	26
2777.53	26
2778.4	27.5
2779.27	25.5
2780.14	25
2781.01	27
2781.87	27
2782.74	18
2783.61	22.5
2784.48	25
2785.35	25
2786.21	25.5
2787.08	20.5
2787.95	27
2788.82	30
2789.69	22.5
2790.55	25
2791.42	27.5
2792.29	26
2793.15	28.5
2794.02	25.5
2794.89	28
2795.75	29
2796.62	30.5
2797.49	25.5
2798.35	29.5
2799.22	26
2800.08	27
2800.95	25.5
2801.81	23.5
2802.68	26.5
2803.55	28.5
2804.41	26.5
2805.28	27
2806.14	25.5
2807	25.5
2807.87	25.5
2808.73	29
2809.6	32
2810.46	29
2811.33	25
2812.19	28
2813.06	33
2813.92	26
2814.78	26.5
2815.65	27.5
2816.51	22
2817.37	25
2818.24	26
2819.1	28.5
2819.96	30
2820.83	24.5
2821.69	25
2822.55	25
2823.41	25
2824.28	24.5
2825.14	26
2826	26.5
2826.86	25
2827.72	26
2828.58	24
2829.45	31
2830.31	28
2831.17	24
2832.03	24.5
2832.89	28.5
2833.75	25.5
2834.61	27
2835.47	32
2836.33	24.5
2837.2	25
2838.05	24.5
2838.92	28.5
2839.78	25
2840.64	28
2841.49	29.5
2842.35	27.5
2843.21	26
2844.07	30
2844.93	28.5
2845.79	25
2846.65	28.5
2847.51	29.5
2848.37	28.5
2849.23	28
2850.09	24.5
2850.94	27
2851.8	25.5
2852.66	23
2853.52	27
2854.38	26
2855.23	25
2856.09	26
2856.95	28
2857.81	32
2858.67	24.5
2859.52	26
2860.38	28.5
2861.24	26
2862.09	25.5
2862.95	31
2863.81	29
2864.66	27
2865.52	30.5
2866.38	30.5
2867.23	27
2868.09	25.5
2868.94	30
2869.8	29
2870.65	34
2871.51	26
2872.37	31.5
2873.22	29
2874.08	31
2874.93	28.5
2875.79	29.5
2876.64	33
2877.49	33
2878.35	34.5
2879.2	35.5
2880.06	34.5
2880.91	34
2881.77	33
2882.62	35.5
2883.47	34
2884.33	36
2885.18	35
2886.03	39
2886.89	38.5
2887.74	39
2888.59	40
2889.45	38
2890.3	44.5
2891.15	44
2892	43
2892.86	49.5
2893.71	48.5
2894.56	49
2895.41	49.5
2896.27	54.5
2897.12	56.5
2897.97	60.5
2898.82	65.5
2899.67	67.5
2900.52	62
2901.37	69.5
2902.23	72.5
2903.08	79.5
2903.93	84
2904.78	79
2905.63	77
2906.48	74
2907.33	81
2908.18	76
2909.03	79.5
2909.88	71.5
2910.73	67.5
2911.58	71
2912.43	60
2913.28	57.5
2914.13	53.5
2914.98	56
2915.83	57
2916.67	46.5
2917.52	44
2918.37	44
2919.22	40
2920.07	38
2920.92	40
2921.77	41.5
2922.61	37
2923.46	36
2924.31	38
2925.16	33.5
2926	35
2926.85	30
2927.7	35.5
2928.55	31.5
2929.39	29
2930.24	26
2931.09	26.5
2931.94	29.5
2932.78	26
2933.63	31.5
2934.47	33
2935.32	29
2936.17	27.5
2937.01	29.5
2937.86	31
2938.7	29
2939.55	31.5
2940.4	31.5
2941.24	30
2942.09	23
2942.93	30
2943.78	30
2944.62	27.5
2945.47	30.5
2946.31	32.5
2947.16	25.5
2948	32
2948.84	32
2949.69	29.5
2950.53	30.5
2951.38	35
2952.22	35.5
2953.06	31
2953.91	35
2954.75	36
2955.59	37
2956.44	35
2957.28	39
2958.12	41
2958.97	43.5
2959.81	45.5
2960.65	44
2961.5	45.5
2962.34	48.5
2963.18	47
2964.02	46.5
2964.86	51
2965.71	47
2966.55	50
2967.39	49
2968.23	48
2969.07	48
2969.91	45.5
2970.75	41.5
2971.6	38.9903
2972.44	38.9508
2973.28	37.5955
2974.12	35.1454
2974.96	39.281
2975.8	39.0203
2976.64	35.5872
2977.48	33.8918
2978.32	33.1217
2979.16	31.5059
2980	31.5953
2980.84	30.6842
2981.68	31.1189
2982.52	28.6119
2983.36	28.8798
2984.2	30.1423
2985.04	29.9522
2985.88	28.6788
2986.71	27.1858
2987.55	29.0267
2988.39	26.4367
2989.23	24.6154
2990.07	26.1931
2990.91	29.5429
2991.75	25.8589
2992.58	27.0768
2993.42	22.8269
2994.26	25.0506
2995.1	23.3959
2995.93	25.5156
2996.77	25.2511
2997.61	24.1582
2998.45	24.9854
2999.28	24.4841
3000.12	26.3209
3000.96	25.5992
3001.79	25.3227
3002.63	24.5026
3003.47	23.2091
3004.3	23.6498
3005.14	24.5194
3005.98	24.129
3006.81	22.3627
3007.65	23.5183
3008.48	23.6581
3009.32	22.8615
3010.15	20.346
3010.99	24.2047
3011.82	25.7436
3012.66	23.8997
3013.5	22.9033
3014.33	25.2396
3015.17	24.3491
3016	23.8715
3016.83	20.92
3017.67	22.6366
3018.5	21.5339
3019.34	22.892
3020.17	25.4147
3021.01	23.2384
3021.84	23.8923
3022.67	21.4141
3023.51	24.4964
3024.34	23.55
3025.17	22.1865
3026.01	21.8334
3026.84	25.9651
3027.67	24.3664
3028.51	23.3301
3029.34	24
3030.17	22.6153
3031	22
3031.84	23.5636
3032.67	22.3311
3033.5	24.2111
3034.33	24.7913
3035.17	24.2788
3036	25.3164
3036.83	23.5093
3037.66	24.1504
3038.49	23.4518
3039.32	22.0884
3040.15	23.2933
3040.99	23.395
3041.82	22.3952
3042.65	24.1635
3043.48	24.591
3044.31	22.1586
3045.14	24.3781
3045.97	25.599
3046.8	23.1966
3047.63	21.2855
3048.46	20.0165
3049.29	21.3452
3050.12	22.2854
3050.95	22.6279
3051.78	22.041
3052.61	24.382
3053.44	23.9143
3054.27	26.087
3055.1	23.6288
3055.92	21.8559
3056.75	26.2867
3057.27	26
3058.11	21
3058.94	23
3059.77	24
3060.61	23
3061.44	22
3062.27	20.5
3063.11	24
3063.94	23
3064.77	25.5
3065.6	25
3066.43	22
3067.27	22
3068.1	22.5
3068.93	24
3069.76	22
3070.59	23
3071.42	20
3072.26	24
3073.09	25
3073.92	23.5
3074.75	21
3075.58	21
3076.41	24
3077.24	24.5
3078.07	22.5
3078.9	25.5
3079.73	25
3080.56	27
3081.39	23
3082.22	26.5
3083.05	25.5
3083.88	20.5
3084.71	21.5
3085.54	24
3086.37	24
3087.2	20
3088.03	22.5
3088.86	26.5
3089.69	22
3090.51	25.5
3091.34	25
3092.17	26
3093	22.5
3093.83	24.5
3094.66	23
3095.48	21
3096.31	25
3097.14	24
3097.97	19.5
3098.79	23.5
3099.62	23.5
3100.45	21
3101.28	23
3102.1	20.5
3102.93	23.5
3103.76	22.5
3104.58	21.5
3105.41	27
3106.24	24
3107.06	25
3107.89	19.5
3108.72	23
3109.54	26
3110.37	24
3111.19	20
3112.02	20.5
3112.84	23.5
3113.67	21.5
3114.49	19
3115.32	27.5
3116.15	23.5
3116.97	23
3117.8	20.5
3118.62	20
3119.44	27
3120.27	24.5
3121.09	22.5
3121.92	24.5
3122.74	25
3123.57	16
3124.39	22
3125.21	18
3126.04	23
3126.86	27
3127.68	26
3128.51	27
3129.33	20.5
3130.15	25
3130.98	25
3131.8	23.5
3132.62	26.5
3133.44	26.5
3134.27	25
3135.09	25
3135.91	27
3136.73	25
3137.56	23
3138.38	20
3139.2	22
3140.02	30
3140.84	22
3141.67	22.5
3142.49	25
3143.31	28
3144.13	24
3144.95	26
3145.77	23
3146.59	21.5
3147.41	26
3148.23	26
3149.05	25.5
3149.87	22
3150.69	23.5
3151.51	26
3152.33	22
3153.15	22
3153.97	22.5
3154.79	25
3155.61	23
3156.43	20
3157.25	23
3158.07	25.5
3158.89	21
3159.71	25
3160.53	26
3161.35	27
3162.17	21
3162.98	26
3163.8	25
3164.62	15
3165.44	25
3166.26	24.5
3167.07	24.5
3167.89	26.5
3168.71	21
3169.53	26
3170.35	23
3171.16	22.5
3171.98	22.5
3172.8	22
3173.61	24.5
3174.43	26
3175.25	22.5
3176.06	25
3176.88	21
3177.7	24
3178.51	23.5
3179.33	20
3180.15	25.5
3180.96	22
3181.78	26
3182.59	20.5
3183.41	24
3184.22	22.5
3185.04	25
3185.85	22.5
3186.67	20.5
3187.49	21
3188.3	22
3189.12	25
3189.93	26
3190.74	23
3191.56	26
3192.37	26.5
3193.19	23.5
3194	23.5
3194.82	26
3195.63	22.5
3196.44	22.5
3197.26	21.5
3198.07	25.5
3198.88	24
3199.7	22.5
3200.51	27
3201.32	25.5
3202.14	26.5
3202.95	25.5
3203.76	20.5
3204.58	24.5
3205.39	24
3206.2	20
3207.01	19.5
3207.83	22
3208.64	24
3209.45	23
3210.26	23.5
3211.07	25.5
3211.88	21
3212.7	26.5
3213.51	27
3214.32	20
3215.13	23.5
3215.94	25
3216.75	21
3217.56	23
3218.37	25.5
3219.18	22
3220	22
3220.8	24.5
3221.62	25
3222.43	25.5
3223.24	22.5
3224.05	27.5
3224.86	24
3225.67	25
3226.47	27
3227.28	22
3228.09	23
3228.9	24
3229.71	25.5
3230.52	24
3231.33	20.5
3232.14	23
3232.95	20
3233.76	24
3234.56	23.5
3235.37	21
3236.18	23
3236.99	21.5
3237.8	27
3238.61	24
3239.41	23
3240.22	19.5
3241.03	26.5
3241.84	22.5
3242.64	23
3243.45	23.5
3244.26	25.5
3245.07	23.5
3245.87	24
3246.68	23.5
3247.49	24
3248.29	21
3249.1	26
3249.9	25
3250.71	28
3251.52	19.5
3252.32	22.5
3253.13	27
3253.93	24
3254.74	26
3255.55	24.5
3256.35	24.5
3257.16	28.5
3257.96	25
3258.77	21
3259.57	22
3260.38	23
3261.18	27
3261.99	22.5
3262.79	24.5
3263.6	25
3264.4	25
3265.2	21.5
3266.01	22
3266.81	23
3267.62	26.5
3268.42	23
3269.22	24.5
3270.03	26
3270.83	20.5
3271.63	26
3272.44	23.5
3273.24	26
3274.04	25
3274.85	23
3275.65	25.5
3276.45	26.5
3277.25	24
3278.06	22
3278.86	29.5
3279.66	25
3280.46	24
3281.26	23.5
3282.07	23.5
3282.87	26.5
3283.67	24.5
3284.47	24.5
3285.27	26.5
3286.07	24
3286.87	24
3287.68	25.5
3288.48	22.5
3289.28	24.5
3290.08	20
3290.88	26.5
3291.68	23
3292.48	25.5
3293.28	25.5
3294.08	23
3294.88	28
3295.68	24
3296.48	25
3297.28	22
3298.08	22.5
3298.88	21
3299.68	21.5
3300.48	21
3301.28	22.5
3302.08	22.5
3302.88	27.5
3303.67	23
3304.47	22.5
3305.27	25
3306.07	28.5
3306.87	21.5
3307.67	19.5
3308.46	21
3309.26	26.5
3310.06	25
3310.86	23.5
3311.66	25.5
3312.45	27
3313.25	26
3314.05	24
3314.85	25
3315.64	24.5
3316.44	24.5
3317.24	23.5
3318.03	23
3318.83	24
3319.63	27
3320.42	25.5
3321.22	26.5
3322.02	24.5
3322.81	21.5
3323.61	22.5
3324.4	26
3325.2	22.5
3326	22
3326.79	24
3327.59	22.5
3328.38	24
3329.18	22
3329.97	23.5
3330.77	27.5
3331.56	24
3332.36	26
3333.15	26.5
3333.95	27
3334.74	23.5
3335.54	21
3336.33	23.5
3337.13	26
3337.92	23.5
3338.71	25.5
3339.51	24
3340.3	19
3341.1	27
3341.89	22
3342.68	21
3343.48	20
3344.27	23
3345.06	25.5
3345.85	24
3346.65	28
3347.44	20.5
3348.23	23
3349.03	26
3349.82	19
3350.61	22.5
3351.4	22.5
3352.19	26
3352.99	23
3353.78	25
3354.57	26
3355.36	19.5
3356.15	22.5
3356.94	23.5
3357.74	20.5
3358.53	25.5
3359.32	23
3360.11	24.5
3360.9	24
3361.69	26.5
3362.48	25
3363.27	27
3364.06	18.5
3364.85	26
3365.64	25.5
3366.43	21
3367.22	20
3368.01	27
3368.8	23.5
3369.59	25.5
3370.38	27
3371.17	26
3371.96	25.5
3372.75	24.5
3373.54	24
3374.33	19.5
3375.12	25
3375.91	29.5
3376.69	23.5
3377.48	26
3378.27	24
3379.06	26
3379.85	23.5
3380.64	27.5
3381.42	24
3382.21	22
3383	21
3383.79	23.5
3384.58	24
3385.36	22
3386.15	27
3386.94	21
3387.73	22
3388.51	24.5
3389.3	24
3390.09	24
3390.87	27
3391.66	23
3392.45	23
3393.23	23.5
3394.02	23
3394.81	22
3395.59	23.5
3396.38	31
3397.16	21.5
3397.95	25
3398.74	25
3399.52	25.5
3400.31	28.5
3401.09	26
3401.88	25.5
3402.66	21.5
3403.45	24
3404.23	25.5
3405.02	24
3405.8	27
3406.59	27.5
3407.37	24
3408.15	19
3408.94	24.5
3409.72	26.5
3410.51	23
3411.29	25
3412.07	21
3412.86	27
3413.64	23
3414.42	24.5
3415.21	21
3415.99	22.5
3416.78	21
3417.56	22.5
3418.34	27
3419.12	24
3419.91	23.5
3420.69	21.5
3421.47	27
3422.25	24
3423.04	26.5
3423.82	20.5
3424.6	27
3425.38	24
3426.16	24
3426.95	25
3427.73	23
3428.51	25
3429.29	27
3430.07	25.5
3430.85	23
3431.63	23.5
3432.42	23
3433.2	25.5
3433.98	23.5
3434.76	22.5
3435.54	19
3436.32	22
3437.1	27
3437.88	23.5
3438.66	20
3439.44	23.5
3440.22	27
3441	25
3441.78	21
3442.56	23.5
3443.34	26
3444.12	23
3444.9	27.5
3445.68	26.5
3446.45	24.5
3447.23	27
3448.01	27.5
3448.79	27.5
3449.57	26
3450.35	25
3451.13	22
3451.91	24
3452.68	21
3453.46	24
3454.24	20.5
3455.02	27
3455.79	22.5
3456.57	25
3457.35	20
3458.13	25
3458.91	26
3459.68	24.5
3460.46	28.5
3461.24	25.5
3462.01	26
3462.79	22.5
3463.57	22
3464.34	24.5
3465.12	24
3465.9	21
3466.67	23
3467.45	23.5
3468.22	24
3469	23.5
3469.78	24
3470.55	25
3471.33	25
3472.1	24
3472.88	23.5
3473.65	22.5
3474.43	25
3475.2	17.5
3475.98	25
3476.75	24.5
3477.53	23
3478.3	24.5
3479.08	26
3479.85	23
3480.63	25.5
3481.4	23
3482.18	26
3482.95	22
3483.72	21
3484.5	24.5
3485.27	25
3486.04	23.5
3486.82	25
3487.59	22.5
3488.36	22
3489.14	26.5
3489.91	23.5
3490.68	21.5
3491.46	24.5
3492.23	24
3493	27
3493.77	22.5
3494.55	21
3495.32	25
3496.09	23.5
3496.86	24
3497.64	24
3498.41	25.5
3499.18	22
3499.95	27
