#Acq. time (s)=	5
#Accumulations=	5
#Range (cm-¹)=	100...3500
#Windows=	4
#Autofocus=	Off
#AutoExposure=	Off
#Spike filter=	Multiple accum.
#Delay time (s)=	0
#Binning=	1
#Readout mode=	Signal
#DeNoise=	Off
#ICS correction=	Off
#Dark correction=	Off
#Inst. Process=	Off
#Instrument=	LabRAM HR Evol
#Detector=	Syncerity OE
#Objective=	x100_VIS
#Grating=	600 (500nm)
#ND Filter=	25%
#Laser=	633nm_Edge
#Hole=	100.021
#Range=	Visible
#Project=	verificaciones
#Sample=	a4
#Site=	lined
#Title=	bolusa4lined
#Remark=	
#Date=	09.01.2026 15:04
#Acquired=	09.01.2026 15:04:30
100.695	98
101.978	98
103.262	103
104.545	103
105.829	98.5
107.112	100
108.394	101.5
109.676	100.5
110.958	100
112.24	101
113.522	96
114.803	103
116.084	105.5
117.365	109.5
118.646	105
119.927	112.5
121.207	108.5
122.487	110
123.767	121
125.047	114
126.326	116
127.606	120
128.885	125.5
130.164	123
131.442	126
132.721	134
133.999	131
135.277	146
136.555	136.5
137.831	142
139.109	151
140.386	155
141.663	147.5
142.94	155.5
144.216	149
145.493	158
146.769	171
148.043	168.5
149.319	179
150.595	180.5
151.87	191.5
153.145	185
154.42	187
155.693	186
156.968	189
158.242	202.5
159.516	196.5
160.79	194.5
162.062	185.5
163.336	180
164.609	179
165.882	187.5
167.153	177.5
168.426	178
169.699	173
170.971	175
172.241	172.5
173.513	175
174.785	176.5
176.055	172
177.326	178.5
178.597	178
179.866	190
181.137	178.5
182.407	190.5
183.676	197
184.946	187.5
186.216	200
187.484	186
188.753	196
190.022	190.5
191.29	187
192.558	186
193.825	186
195.094	191
196.36	178
197.628	182
198.896	183.5
200.162	170
201.429	171
202.695	162
203.962	165.5
205.227	150.5
206.493	151
207.758	152.5
209.024	144
210.289	145
211.554	143.5
212.818	141
214.083	135
215.347	133.5
216.612	129.5
217.875	124
219.138	126
220.402	121
221.665	122.5
222.928	118
224.19	118
225.454	119
226.715	121
227.977	117
229.24	117
230.501	113.5
231.762	113.5
233.024	105.5
234.284	104.5
235.546	107.5
236.806	100
238.066	107.5
239.327	100
240.587	104
241.846	98
243.105	100.5
244.365	102
245.624	100
246.882	96.5
248.142	99.5
249.4	100.5
250.658	98
251.916	100
253.174	100
254.432	100
255.689	100
256.945	101
258.202	98
259.46	101
260.716	100
261.972	91.5
263.228	95.5
264.483	97.5
265.74	94
266.996	90.5
268.251	91
269.505	88
270.76	92
272.014	90
273.268	89.5
274.522	87
275.778	88
277.031	83
278.285	94.5
279.538	88.5
280.791	87.5
282.043	87.5
283.296	79
284.548	87
285.8	81
287.052	85
288.304	86.5
289.556	89
290.807	91.5
292.058	89.5
293.309	88
294.56	84
295.81	85
297.061	85.5
298.311	86
299.561	92.5
300.81	87.5
302.06	83
303.309	83
304.558	81
305.807	94.5
307.056	90
308.305	84
309.551	89
310.8	84.5
312.047	86.5
313.295	90
314.543	88
315.79	82.5
317.037	91
318.284	88
319.529	82.5
320.776	87.5
322.022	85
323.268	84
324.514	90
325.758	89
327.004	87
328.249	85
329.494	87
330.739	86.5
331.982	84
333.227	88
334.471	84
335.715	87.5
336.958	88
338.201	83.5
339.445	91
340.687	87
341.93	86
343.173	91
344.414	85.5
345.657	86.5
346.899	86
348.14	90.5
349.381	85.5
350.623	89
351.863	91.5
353.104	89
354.346	88
355.585	83
356.826	90
358.065	81
359.305	87.5
360.545	87
361.784	84
363.023	91
364.261	84.5
365.501	87.5
366.738	84
367.977	91
369.216	84.5
370.453	85
371.691	90.5
372.928	82.5
374.166	83.5
375.402	81
376.64	82.5
377.876	83
379.111	84
380.348	81
381.584	82
382.82	88
384.055	80.5
385.291	84
386.526	81
387.76	83.5
388.996	85.5
390.229	82
391.465	79.5
392.698	82.5
393.931	82
395.166	83.5
396.399	88
397.632	84
398.866	80.5
400.098	80.5
401.33	80
402.563	80
403.795	76
405.027	84.5
406.259	75.5
407.491	82.5
408.721	82.5
409.954	85
411.184	74.5
412.415	80.5
413.645	80
414.876	80.5
416.106	81
417.335	77.5
418.565	78
419.794	86.5
421.024	76.5
422.253	82
423.482	80
424.71	78
425.938	84.5
427.168	85.5
428.396	84
429.623	85
430.851	86
432.078	83.5
433.305	85
434.532	82.5
435.758	86.5
436.986	86.5
438.212	85
439.438	83
440.664	83.5
441.89	86.5
443.115	84
444.34	89
445.566	91
446.79	90.5
448.015	88.5
449.24	90.5
450.464	91.5
451.688	88.5
452.912	86
454.135	97
455.359	98
456.582	89
457.805	88
459.028	91.5
460.251	102
461.473	107
462.696	104
463.918	108.5
465.14	109
466.36	117
467.582	117.5
468.803	123.5
470.024	131
471.245	132
472.466	141
473.686	154.5
474.907	154.5
476.126	173.5
477.346	188.5
478.565	196
479.785	241
481.004	243.5
482.224	265.5
483.441	289.5
484.66	327.5
485.879	340
487.097	344.5
488.314	352
489.532	357
490.75	352
491.967	336
493.184	319.5
494.401	308
495.618	294
496.835	282
498.05	265
499.267	250
500.483	227
501.698	218.5
502.913	222
504.129	196.5
505.343	185
506.559	173.5
507.774	164
508.987	159
510.202	156.5
511.415	143
512.63	138.5
513.844	133.5
515.056	123.5
516.27	129
517.482	126
518.696	120.5
519.907	117.5
521.121	112
522.332	119
523.545	112.5
524.757	113.5
525.968	102
527.18	102.5
528.39	103
529.602	98
530.812	102.5
532.023	103
533.233	97.5
534.443	94.5
535.653	91.5
536.862	94
538.073	100
539.281	85.5
540.491	95
541.7	91.5
542.908	90
544.117	90.5
545.325	86.5
546.534	91.5
547.741	92
548.949	88.5
550.157	90
551.364	88.5
552.57	86.5
553.778	86
554.985	89
556.191	88.5
557.398	82
558.604	81.5
559.809	90
561.014	88
562.221	82
563.426	82.5
564.63	84.5
565.835	85
567.041	76
568.245	85
569.449	78
570.653	82.5
571.856	81
573.061	89
574.264	82.5
575.467	72.5
576.67	76
577.873	89.5
579.076	81.5
580.279	85
581.481	77.5
582.683	83.5
583.884	84
585.086	82.5
586.287	79
587.488	84.5
588.689	82
589.891	85.5
591.092	89
592.292	76.5
593.492	77
594.692	79
595.892	82.5
597.092	86.5
598.291	78
599.49	85
600.689	82
601.888	77.5
603.087	83
604.285	81
605.483	82.5
606.681	81.5
607.879	82.5
609.077	86.5
610.274	80.5
611.472	81
612.668	78.5
613.865	86
615.061	79
616.258	81
617.454	86.5
618.65	78
619.846	79.5
621.042	79
622.238	81.5
623.432	79.5
624.627	80.5
625.822	88
627.017	83.5
628.212	91.5
629.406	81
630.599	84
631.793	81
632.987	85.5
634.181	81
635.373	84
636.566	82.5
637.76	85.5
638.953	86
640.144	88
641.337	82
642.529	88
643.721	93
644.912	89.5
646.104	84.5
647.295	87
648.485	90.5
649.677	79
650.868	81.5
652.057	88
653.248	82.5
654.437	81
655.628	83
656.818	85.5
658.006	90
659.196	89.5
660.384	92.5
661.574	85
662.763	88.5
663.951	96
665.14	90.5
666.327	85
667.515	95
668.702	98
669.891	88
671.077	94.5
672.265	95
673.451	100
674.638	101.5
675.824	102
677.011	109.5
678.197	109.5
679.383	118
680.568	116
681.755	118
682.939	131
684.124	133
685.309	141
686.494	138
687.679	143
688.863	129.5
690.046	134
691.231	135.5
692.414	129
693.599	132.5
694.781	133
695.964	133.5
697.148	138.5
698.33	142.5
699.512	149
700.694	147
701.877	169
703.059	181
704.24	198.5
705.423	211
706.604	253.5
707.784	264.5
708.965	280
710.147	262.5
711.327	252.5
712.507	242
713.687	200
714.867	163
716.048	149.5
717.227	134
718.406	119.5
719.585	113
720.764	110.5
721.942	99
723.122	95.5
724.3	95
725.478	88.5
726.656	94
727.834	89
729.011	91
730.189	90
731.366	87.5
732.543	86.5
733.719	83
734.896	80
736.072	81
737.249	86
738.426	87
739.602	80
740.777	80
741.953	80
743.128	77
744.303	81.5
745.477	86
746.651	84
747.826	84
749	87.5
750.174	79.5
751.348	86
752.522	86
753.696	84
754.869	75.5
756.043	77.5
757.216	89
758.389	78
759.561	83.5
760.732	78
761.905	77
763.077	81.5
764.249	84
765.421	85
766.592	76
767.762	80.5
768.934	78
770.105	81
771.275	79.5
772.446	81
773.615	86
774.786	85
775.956	88.5
777.126	85.5
778.294	89
779.464	85
780.633	93
781.801	97.5
782.97	96.5
784.139	95
785.306	106
786.475	106
787.643	113
788.81	116
789.978	105
791.146	103.5
792.312	103
793.479	96.5
794.647	97.5
795.812	91
796.979	97
798.144	100.5
799.311	93.5
800.477	92
801.642	91.5
802.808	83.5
803.972	83
805.138	89.5
806.302	86.5
807.467	89.5
808.631	87
809.796	79.5
810.959	84.5
812.124	80.5
813.287	78
814.451	89.5
815.614	83.5
816.777	78.5
817.94	80.5
819.102	83
820.265	79
821.427	75
822.59	74.5
823.751	71
824.912	78
826.074	72.5
827.235	79
828.397	78
829.558	75
830.718	73
831.879	77.5
833.039	82.5
834.199	79.5
835.359	83
836.519	85
837.679	77.5
838.838	85.5
839.998	83.5
841.156	78
842.315	83
843.473	80
844.633	81.5
845.791	84
846.948	85
848.106	82.5
849.263	77.5
850.422	85
851.579	82.5
852.736	89
853.892	80
855.049	87
856.205	90
857.363	95
858.519	89.5
859.674	94
860.83	87.5
861.986	87
863.141	88.5
864.296	89.5
865.451	90.5
866.605	87.5
867.76	89.5
868.914	83.5
870.069	81
871.224	87.5
872.378	81.5
873.531	86
874.685	87
875.838	83.5
876.991	73.5
878.144	79
879.296	81.5
880.448	84.5
881.6	79
882.753	81
883.905	76
885.057	77.5
886.208	73.5
887.36	75
888.511	77.5
889.662	70.5
890.813	73.5
891.964	72
893.113	70
894.264	71.5
895.414	78
896.564	76.5
897.714	68
898.864	71
900.012	73
901.161	75
902.31	75
903.459	72.5
904.607	71.5
905.756	67.5
906.904	70.5
908.052	75.5
909.199	65.5
910.347	73
911.495	79.5
912.643	72
913.789	66.5
914.936	72.5
916.083	68
917.229	64.5
918.375	67.5
919.522	71
920.667	69.5
921.813	68
922.959	71.5
924.104	67
925.249	71.5
926.393	67.5
927.539	74.5
928.684	71
929.827	64
930.972	74
932.115	64
933.26	67
934.403	65.5
935.547	70
936.689	72
937.833	77.5
938.975	67.5
940.119	74.5
941.26	69.5
942.404	65
943.545	72.5
944.688	69
945.829	71
946.971	66.5
948.112	68
949.253	69
950.394	68.5
951.535	67
952.676	67
953.816	72.5
954.956	74.5
956.097	67.5
957.236	75
958.377	68
959.516	74
960.655	64.5
961.793	69.5
962.933	71
964.071	66
965.21	67.5
966.349	72
967.487	70
968.624	67.5
969.762	71.5
970.901	70.5
972.038	67
973.175	72.5
974.311	70
975.449	75
976.586	72.5
977.722	69.5
978.858	72
979.994	71
981.131	80.5
982.267	65.5
983.402	75.5
984.537	69.5
985.672	71
986.807	71.5
987.942	68.5
989.076	69.5
990.211	67.5
991.346	71
992.48	73
993.614	70.5
994.748	73.5
995.881	71
997.014	68.5
998.148	75.5
999.28	67
1000.41	71
1001.55	73.5
1002.68	67
1003.81	71
1004.94	63.5
1006.07	70
1007.21	70
1008.34	72
1009.47	76.5
1010.6	73
1011.73	69.5
1012.86	69.5
1013.99	66
1015.12	71
1016.25	65
1017.38	71
1018.51	64.5
1019.64	66
1020.77	70
1021.9	66.5
1023.03	65
1024.16	70
1025.29	70
1026.42	71.5
1027.54	64.5
1028.67	70
1029.8	69
1030.93	70
1032.06	72
1033.18	71.5
1034.31	73.5
1035.44	69
1036.56	71.5
1037.69	62
1038.82	67
1039.94	65
1041.07	70.5
1042.2	70
1043.32	67.5
1044.45	72.5
1045.57	69.5
1046.7	74
1047.82	65
1048.95	68
1050.07	67
1051.2	70
1052.32	66
1053.45	72.5
1054.57	72
1055.69	70.5
1056.82	70.5
1057.94	69
1059.06	76
1060.19	65
1061.31	68.5
1062.43	69.5
1063.55	70.5
1064.68	70.5
1065.8	71.5
1066.92	69
1068.04	65.5
1069.16	73
1070.28	76
1071.41	73
1072.53	70.5
1073.65	65.5
1074.77	69.5
1075.89	65
1077.01	70
1078.13	68
1079.25	68
1080.37	66.5
1081.49	72
1082.61	74
1083.73	70.5
1084.85	68
1085.96	69.5
1087.08	69
1088.2	66
1089.32	69
1090.44	68.5
1091.56	67.5
1092.67	65.5
1093.79	72
1094.91	66.5
1096.03	64.5
1097.14	67
1098.26	68
1099.38	66
1100.49	68
1101.61	67
1102.73	72
1103.84	71.5
1104.96	71
1106.07	65.5
1107.19	67.5
1108.3	64.5
1109.42	67.5
1110.53	66.5
1111.65	64.5
1112.76	66.5
1113.88	69
1114.99	69
1116.1	67
1117.22	66.5
1118.33	62
1119.44	66
1120.56	63
1121.67	68
1122.78	71
1123.9	60.5
1125.01	67
1126.12	63.5
1127.23	68
1128.34	53
1129.46	63
1130.57	64.5
1131.68	68
1132.79	66.5
1133.9	66
1135.01	72
1136.12	67
1137.23	61.5
1138.34	64
1139.45	68.5
1140.56	68
1141.67	66.5
1142.78	60.5
1143.89	69
1145	66.5
1146.11	70.5
1147.22	64.5
1148.33	65
1149.44	70
1150.54	65.5
1151.65	67
1152.76	64.5
1153.87	63.5
1154.97	65
1156.08	69
1157.19	73.5
1158.3	66
1159.4	71.5
1160.51	63
1161.62	66.5
1162.72	65
1163.83	66.5
1164.93	63
1166.04	66
1167.15	69.5
1168.25	74
1169.36	69.5
1170.46	70
1171.57	67
1172.67	70
1173.78	67
1174.88	68
1175.98	65.5
1177.09	70
1178.19	66
1179.3	63.5
1180.4	59.5
1181.5	66
1182.61	67.5
1183.71	65
1184.81	66
1185.91	70.5
1187.02	62
1188.12	66
1189.22	64.5
1190.32	69.5
1191.42	65
1192.53	64
1193.63	61
1194.73	62.5035
1195.83	61.0667
1196.93	64.1619
1198.03	69.4669
1199.13	62.6138
1200.23	69.7982
1201.33	67.6138
1202.43	61.5694
1203.53	64.7445
1204.63	62.4337
1205.73	59.9691
1206.83	62.248
1207.93	66.3203
1209.02	66.9884
1210.12	68.1809
1211.22	61.6562
1212.32	64.9204
1213.42	66.9804
1214.52	59.6662
1215.61	64.4586
1216.71	64.9889
1217.81	65.3512
1218.91	64.3004
1220	60.3371
1221.1	66.9679
1222.2	65.5106
1223.29	65.6608
1224.39	63.164
1225.49	63.0532
1226.58	65.1934
1227.68	67.3862
1228.77	62.0126
1229.87	63.7107
1230.96	65.1106
1232.06	64.0538
1233.15	64.4417
1234.25	63.4242
1235.34	65.166
1236.44	64.0164
1237.53	62.0507
1238.63	65.5076
1239.72	65.9794
1240.81	64.7694
1241.91	61.4021
1243	68.542
1244.09	66.4024
1245.19	64.9101
1246.28	64.5296
1247.37	68.1745
1248.46	67.8771
1249.56	68.7244
1250.65	67.5141
1251.74	72.2069
1252.83	69.2759
1253.92	76.4886
1255.01	72.2142
1256.11	74.7433
1257.2	80.1549
1258.29	80.5676
1259.38	77.1466
1260.47	82.6046
1261.56	82.5446
1262.65	84.536
1263.74	84.4694
1264.83	80.5899
1265.92	84.8208
1267.01	76.6685
1268.1	74.0393
1269.19	72.5891
1270.27	69.0654
1271.36	70.4544
1272.45	68.4345
1273.54	68.2233
1274.63	66.2302
1275.72	68.2187
1276.8	63.776
1277.89	66.3278
1278.98	67.1468
1280.07	67.2687
1281.15	64.7576
1282.24	67.5
1283.33	64.5699
1284.41	67.0009
1285.5	65.829
1286.59	65.1707
1287.67	69.6427
1288.76	66.7509
1289.84	65.2743
1290.93	65.5
1292.01	67.0205
1293.1	70.386
1294.19	67.3758
1295.27	61.0461
1296.35	67.5089
1297.44	68.2299
1298.52	65.1734
1299.61	64.4259
1300.69	70.2997
1301.78	60.8979
1302.86	62.9082
1303.94	62.0947
1305.03	66.5447
1306.11	65.1747
1306.4	64
1307.49	68.5
1308.57	66.5
1309.66	66.5
1310.75	68.5
1311.84	68
1312.92	63
1314.01	71
1315.1	65
1316.19	65
1317.27	61
1318.36	65
1319.45	67
1320.53	69.5
1321.62	66
1322.7	64.5
1323.79	63.5
1324.88	69.5
1325.96	67.5
1327.05	56.5
1328.13	61
1329.21	69.5
1330.3	65
1331.38	63
1332.47	59.5
1333.55	63
1334.64	63
1335.72	65.5
1336.8	66.5
1337.89	68
1338.97	72
1340.05	66.5
1341.14	64
1342.22	65.5
1343.3	63.5
1344.39	61
1345.47	65
1346.55	65.5
1347.63	61
1348.71	65
1349.79	64.5
1350.88	65
1351.96	58
1353.04	66
1354.12	63.5
1355.2	65
1356.28	61.5
1357.36	68
1358.44	59
1359.52	67
1360.6	67
1361.68	66
1362.76	67
1363.84	64
1364.92	64
1366	60
1367.08	64.5
1368.16	66.5
1369.23	65
1370.31	66
1371.39	68.5
1372.47	69.5
1373.55	72
1374.62	59
1375.7	61.5
1376.78	70.5
1377.85	66
1378.93	64.5
1380.01	68
1381.09	70
1382.16	64
1383.24	67.5
1384.31	69
1385.39	73
1386.47	72
1387.54	68.5
1388.62	73
1389.69	69.5
1390.77	75.5
1391.84	74
1392.92	78
1393.99	78
1395.06	79
1396.14	75.5
1397.21	84.5
1398.29	84
1399.36	91.5
1400.43	86.5
1401.51	99
1402.58	98
1403.65	94.5
1404.73	101
1405.8	107
1406.87	110.5
1407.94	108
1409.02	103
1410.09	114
1411.16	106
1412.23	112
1413.3	104
1414.37	108.5
1415.45	109
1416.52	105.5
1417.59	104
1418.66	97.5
1419.73	94.5
1420.8	91
1421.87	87.5
1422.94	83.5
1424.01	79
1425.08	85.5
1426.15	82.5
1427.22	77.5
1428.29	79
1429.35	74.5
1430.42	75
1431.49	79.5
1432.56	76
1433.63	72.5
1434.7	75
1435.77	74
1436.83	67
1437.9	69
1438.97	72
1440.04	65
1441.1	67
1442.17	77.5
1443.24	71.5
1444.3	64
1445.37	66
1446.44	71
1447.5	68
1448.57	69.5
1449.63	70.5
1450.7	74.5
1451.76	71.5
1452.83	69.5
1453.89	67
1454.96	69
1456.02	68.5
1457.09	66
1458.15	68
1459.22	66
1460.28	68
1461.34	66.5
1462.41	68
1463.47	68
1464.54	69.5
1465.6	67
1466.66	68
1467.72	62.5
1468.79	75
1469.85	68
1470.91	66
1471.97	64
1473.04	64
1474.1	62
1475.16	63.5
1476.22	62
1477.28	67.5
1478.34	61
1479.4	67.5
1480.47	70.5
1481.53	69.5
1482.59	67
1483.65	63
1484.71	72.5
1485.77	71.5
1486.83	70
1487.89	64
1488.95	63.5
1490.01	68.5
1491.07	73
1492.12	70
1493.18	66
1494.24	69.5
1495.3	75
1496.36	65.5
1497.42	70
1498.47	70
1499.53	69
1500.59	63
1501.65	59
1502.7	68.5
1503.76	63.5
1504.82	64
1505.88	68.5
1506.93	64
1507.99	68.5
1509.05	64
1510.1	64
1511.16	64.5
1512.21	67
1513.27	62.5
1514.32	64
1515.38	63
1516.43	66
1517.49	62
1518.54	63
1519.6	62.5
1520.65	65
1521.71	62
1522.76	61
1523.82	65.5
1524.87	62
1525.92	63.5
1526.98	61
1528.03	62
1529.08	67.5
1530.14	67.5
1531.19	67
1532.24	62
1533.3	64.5
1534.35	63.5
1535.4	62.5
1536.45	61
1537.5	63.5
1538.56	70
1539.61	63
1540.66	65
1541.71	67
1542.76	62
1543.81	58.5
1544.86	61.5
1545.91	61
1546.96	60
1548.01	68
1549.06	67.5
1550.11	60.5
1551.16	65
1552.21	63.5
1553.26	68.5
1554.31	60
1555.36	61
1556.41	64
1557.46	64.5
1558.51	62
1559.55	65
1560.6	64
1561.65	62.5
1562.7	64
1563.75	60
1564.79	65.5
1565.84	58
1566.89	65.5
1567.94	69.5
1568.98	66
1570.03	65
1571.07	62
1572.12	60
1573.17	58
1574.21	60
1575.26	61
1576.31	63
1577.35	61.5
1578.4	66
1579.44	62
1580.49	61
1581.53	58.5
1582.58	62
1583.62	61.5
1584.67	60.5
1585.71	66.5
1586.75	64.5
1587.8	58
1588.84	61
1589.89	62.5
1590.93	62
1591.97	59
1593.02	59
1594.06	61
1595.1	60.5
1596.14	60
1597.19	59.5
1598.23	67
1599.27	56
1600.31	58
1601.35	63
1602.4	60
1603.44	55
1604.48	62
1605.52	59
1606.56	63
1607.6	59
1608.64	59
1609.68	60.5
1610.72	61
1611.76	61
1612.8	58
1613.84	58
1614.88	57.5
1615.92	58.5
1616.96	56
1618	60.5
1619.04	64.5
1620.08	61
1621.12	55.5
1622.16	61.5
1623.19	63.5
1624.23	61.5
1625.27	59.5
1626.31	58.5
1627.35	56.5
1628.38	60
1629.42	56.5
1630.46	60
1631.5	54
1632.53	62
1633.57	61.5
1634.61	59
1635.64	58
1636.68	58
1637.71	54.5
1638.75	55
1639.79	62
1640.82	57.5
1641.86	64.5
1642.89	58
1643.93	58
1644.96	60
1646	57
1647.03	57.5
1648.07	59.5
1649.1	57.5
1650.14	58.5
1651.17	59
1652.2	57
1653.24	59.5
1654.27	57
1655.3	51
1656.34	61
1657.37	58
1658.4	59
1659.44	54
1660.47	55
1661.5	58
1662.53	60.5
1663.57	61
1664.6	58.5
1665.63	55.5
1666.66	60
1667.69	60
1668.72	57
1669.75	57
1670.79	60
1671.82	54
1672.85	52
1673.88	57
1674.91	63
1675.94	59
1676.97	53.5
1678	55
1679.03	53
1680.06	53.5
1681.09	63
1682.11	62
1683.14	61.5
1684.17	53.5
1685.2	59.5
1686.23	57.5
1687.26	58.5
1688.29	58.5
1689.32	54.5
1690.34	59
1691.37	54
1692.4	54
1693.43	58
1694.45	55.5
1695.48	58.5
1696.51	52.5
1697.53	58.5
1698.56	56.5
1699.59	56
1700.61	52
1701.64	58
1702.66	53
1703.69	55.5
1704.72	54.5
1705.74	60
1706.77	60
1707.79	56.5
1708.82	60
1709.84	54
1710.87	53.5
1711.89	53
1712.92	52
1713.94	57
1714.96	55
1715.99	56
1717.01	59
1718.04	57.5
1719.06	54.5
1720.08	58
1721.11	53
1722.13	55.5
1723.15	52.5
1724.17	53.5
1725.2	55.5
1726.22	59
1727.24	57.5
1728.26	59.5
1729.28	61.5
1730.31	55
1731.33	61.5
1732.35	59
1733.37	54
1734.39	56
1735.41	56.5
1736.43	57.5
1737.45	54
1738.47	52
1739.49	57
1740.51	54
1741.53	50
1742.55	53
1743.57	55
1744.59	59
1745.61	53
1746.63	56
1747.65	52.5
1748.67	56.5
1749.69	56.5
1750.71	49
1751.72	55
1752.74	55.5
1753.76	57.5
1754.78	54
1755.8	54
1756.81	53.5
1757.83	55
1758.85	57.5
1759.86	58
1760.88	55
1761.9	52
1762.91	51.5
1763.93	49
1764.95	58
1765.96	51
1766.98	50.5
1768	55.5
1769.01	53.5
1770.03	55
1771.04	54
1772.06	56
1773.07	54
1774.09	57
1775.1	55
1776.12	55
1777.13	54.5
1778.14	48
1779.16	52.5
1780.17	57.5
1781.19	56.5
1782.2	55
1783.21	55.5
1784.23	61
1785.24	59
1786.25	56.5
1787.27	56.5
1788.28	57.5
1789.29	52
1790.3	57.5
1791.32	55
1792.33	51
1793.34	55.5
1794.35	53
1795.36	56
1796.37	54
1797.38	53.5
1798.4	55
1799.41	55.5
1800.42	54
1801.43	55.5
1802.44	52
1803.45	55
1804.46	52
1805.47	56.5
1806.48	52.5
1807.49	56
1808.5	54
1809.51	44
1810.52	49.5
1811.53	56.5
1812.53	51.5
1813.54	57.5
1814.55	55
1815.56	54
1816.57	50
1817.58	55.5
1818.58	52
1819.59	55
1820.6	51
1821.61	55
1822.61	45.5
1823.62	55.5
1824.63	49
1825.64	49
1826.64	54
1827.65	50.5
1828.66	52.5
1829.66	53.5
1830.67	50
1831.67	55.5
1832.68	55
1833.68	57.5
1834.69	48.5
1835.7	54
1836.7	56.5
1837.71	55
1838.71	50
1839.71	49.5
1840.72	56
1841.72	56
1842.73	53
1843.73	51.5
1844.74	55
1845.74	52
1846.74	49
1847.75	51.5
1848.75	53.5
1849.75	53
1850.76	51
1851.76	49
1852.76	52.5
1853.76	52.5
1854.77	56.5
1855.77	49.5
1856.77	50.5
1857.77	52
1858.77	55
1859.78	51.5
1860.78	51
1861.78	57
1862.78	51.5
1863.78	51
1864.78	52.5
1865.78	48
1866.78	56.5
1867.78	55.5
1868.78	50.5
1869.78	57
1870.78	55
1871.78	48
1872.78	52
1873.78	49.5
1874.78	49
1875.78	49
1876.78	51.5
1877.78	51
1878.78	53
1879.77	52.5
1880.77	50
1881.77	48.5
1882.77	52.5
1883.77	49.5
1884.76	53.5
1885.76	53
1886.76	51
1887.76	52
1888.75	54
1889.75	57
1890.75	50.5
1891.74	50.5
1892.74	52
1893.74	52
1894.73	51
1895.73	54
1896.72	53.5
1897.72	54.5
1898.72	45.5
1899.71	50
1900.71	48.5
1901.7	51.5
1902.7	51.5
1903.69	53
1904.69	43
1905.68	50
1906.67	54
1907.67	54
1908.66	53.5
1909.66	51.5
1910.65	49.5
1911.64	52
1912.64	47
1913.63	44.5
1914.62	47.5
1915.62	52
1916.61	57
1917.6	50
1918.59	52
1919.59	46
1920.58	57.5
1921.57	52.5
1922.56	49
1923.55	54
1924.55	47.5
1925.54	47
1926.53	49.5
1927.52	46
1928.51	50
1929.5	51.5
1930.49	47
1931.48	48
1932.47	52.5
1933.46	52.5
1934.45	50
1935.44	52.5
1936.43	48
1937.42	55
1938.41	47.5
1939.4	51.5
1940.39	49
1941.38	43
1942.37	52
1943.36	51.5
1944.34	52.5
1945.33	47
1946.32	49
1947.31	49
1948.3	52.25
1949.28	50
1950.27	51
1951.26	51.5
1952.25	45.5
1953.23	52
1954.22	49.5
1955.21	51
1956.2	49.5
1957.18	52
1958.17	55
1959.15	45
1960.14	52.5
1961.13	47.5
1962.11	53
1963.1	46.5
1964.08	51.5
1965.07	49.5
1966.05	46.5
1967.04	46.5
1968.02	50
1969.01	47
1969.99	51
1970.98	45.5
1971.96	54
1972.94	49.5
1973.93	51
1974.91	48.5
1975.9	49
1976.88	51
1977.86	50
1978.85	51
1979.83	50.5
1980.81	52
1981.8	51
1982.78	50.5
1983.76	47
1984.74	49
1985.72	51
1986.71	48
1987.69	48.5
1988.67	49.5
1989.65	52
1990.63	50.5
1991.61	48.5
1992.6	51
1993.58	49.5
1994.56	52
1995.54	51
1996.52	53
1997.5	55
1998.48	47
1999.46	48.5
2000.44	46
2001.42	43
2002.4	49
2003.38	50
2004.36	46.5
2005.34	48
2006.32	43.5
2007.29	45
2008.27	50
2009.25	48.5
2010.23	45.5
2011.21	50.5
2012.19	45.5
2013.16	44
2014.14	53
2015.12	48
2016.1	52
2017.07	46.5
2018.05	49.5
2019.03	47.5
2020	45.5
2020.98	44
2021.96	47.5
2022.93	48.5
2023.91	45
2024.89	48
2025.86	50
2026.84	45
2027.81	51
2028.79	47
2029.77	52.5
2030.74	46
2031.72	46.5
2032.69	46
2033.67	52
2034.64	53
2035.61	46.5
2036.59	46.5
2037.56	46
2038.54	49.5
2039.51	47
2040.48	46
2041.46	51.5
2042.43	48
2043.41	48
2044.38	50.5
2045.35	47
2046.32	51
2047.3	47.5
2048.27	52.5
2049.24	47
2050.21	45.5
2051.19	47
2052.16	45
2053.13	49
2054.1	48
2055.07	42.5
2056.04	49.5
2057.02	49
2057.99	46.5
2058.96	48
2059.93	46
2060.9	44.5
2061.87	45
2062.84	45
2063.81	47.5
2064.78	49
2065.75	50.5
2066.72	51.5
2067.69	48.5
2068.66	48.5
2069.63	45.5
2070.6	49.5
2071.57	42.5
2072.53	45
2073.5	44
2074.47	48
2075.44	50.5
2076.41	45
2077.38	45
2078.34	43
2079.31	43
2080.28	48
2081.25	48.5
2082.21	48.5
2083.18	45
2084.15	42.5
2085.12	47.5
2086.08	45.5
2087.05	47
2088.02	43.5
2088.98	42
2089.95	45
2090.91	46.5
2091.88	50
2092.85	50
2093.81	42
2094.78	47
2095.74	50.5
2096.71	47.5
2097.67	46
2098.64	45.5
2099.6	45.5
2100.57	46
2101.53	46.5
2102.5	47.5
2103.46	50
2104.42	46.5
2105.39	47
2106.35	42.5
2107.31	46.5
2108.28	51
2109.24	50.5
2110.2	46.5
2111.17	50.5
2112.13	44
2113.09	44
2114.06	47
2115.02	45
2115.98	43
2116.94	50.5
2117.9	44
2118.86	46.5
2119.83	44
2120.79	47
2121.75	40
2122.71	46.5
2123.67	47.5
2124.63	43.5
2125.59	40
2126.55	47
2127.51	44
2128.48	45
2129.43	50.5
2130.4	39.5
2131.35	50.5
2132.31	50
2133.27	47
2134.23	44
2135.19	46.5
2136.15	43.5
2137.11	44
2138.07	46.5
2139.03	52
2139.99	48
2140.95	45
2141.9	49
2142.86	46.4946
2143.82	41.4941
2144.78	48.3792
2145.74	45.034
2146.69	44.5717
2147.65	47.8679
2148.61	47.6845
2149.56	46.6406
2150.52	48.2918
2151.48	46.4297
2152.44	45.5478
2153.39	44.9446
2154.35	45.2408
2155.3	42.6842
2156.26	41.8689
2157.22	42.9288
2158.17	46.9479
2159.13	45.7886
2160.08	43
2161.04	42.5555
2161.99	46.7451
2162.95	44.1226
2163.9	43.5631
2164.86	45.8592
2165.81	43.992
2166.77	43.0252
2167.72	41.3804
2168.68	39.5133
2169.63	44.999
2170.58	42.1094
2171.54	46.2682
2172.49	44.9479
2173.44	44.1739
2174.4	42.9602
2175.35	42.1614
2176.3	43.2109
2177.26	43.7187
2178.21	44.8428
2179.16	45.3131
2180.11	45.8844
2181.07	45.2006
2182.02	43.5988
2182.97	41.2504
2183.92	44.7258
2184.88	45.3383
2185.83	44.3246
2186.78	41.8865
2187.73	43.1141
2188.68	46.2091
2189.63	41.611
2190.58	43.4318
2191.53	41.0225
2192.48	42.6015
2193.43	45.809
2194.38	46.2154
2195.33	41.8096
2196.28	43.835
2197.23	40.6403
2198.18	44.465
2199.13	40.127
2200.08	43.8443
2201.03	44.7266
2201.98	46.6581
2202.93	44.0957
2203.88	43.5
2204.83	41.9535
2205.78	42.5528
2206.72	44.6291
2207.67	42.7088
2208.62	42.1863
2209.57	40.3778
2210.52	45.2756
2211.46	39.8935
2212.41	41.4259
2213.36	40.4681
2214.31	42.6291
2215.25	42.6449
2216.2	43.9047
2217.15	43.7978
2218.09	41.5618
2219.04	40.3277
2219.99	42.8456
2220.93	43.3981
2221.88	43.0947
2222.83	45.601
2223.77	42.635
2224.72	44.1597
2225.66	39.5301
2226.61	40.5945
2227.55	45.2922
2228.5	42.0607
2229.44	43.8164
2230.39	43.2931
2231.33	48.8549
2232.28	47.6965
2233.22	41.413
2234.17	40.4434
2235.11	42.19
2236.05	42.2474
2237	42.8373
2237.94	41.4555
2238.88	41.0073
2239.83	42.1624
2240.04	42.5
2240.98	45
2241.93	36.5
2242.88	40.5
2243.83	43
2244.78	46.5
2245.72	40.5
2246.67	43.5
2247.62	43
2248.56	44.5
2249.51	45.5
2250.46	43
2251.4	44
2252.35	38.5
2253.3	44.5
2254.24	39
2255.19	39
2256.14	38
2257.08	43.5
2258.03	45.5
2258.97	41.5
2259.92	41
2260.86	43.5
2261.81	36
2262.75	43.5
2263.7	41.5
2264.64	44.5
2265.59	45
2266.53	46
2267.48	43
2268.42	46
2269.36	44
2270.31	41
2271.25	48
2272.19	43
2273.14	41.5
2274.08	42
2275.02	43
2275.97	45
2276.91	41
2277.85	42
2278.8	40
2279.74	41
2280.68	41
2281.62	43
2282.56	40.5
2283.51	43
2284.45	39.5
2285.39	45.5
2286.33	35
2287.27	42.5
2288.21	41
2289.15	40.5
2290.09	41.5
2291.04	43
2291.98	37
2292.92	39
2293.86	40.5
2294.8	37
2295.74	45.5
2296.68	39
2297.62	40
2298.56	41
2299.5	42
2300.44	41
2301.37	41.5
2302.31	43
2303.25	42.5
2304.19	43
2305.13	41
2306.07	46.5
2307.01	42.5
2307.94	38.5
2308.88	40.5
2309.82	37.5
2310.76	43
2311.7	39
2312.63	38.5
2313.57	40.5
2314.51	39
2315.44	40
2316.38	40
2317.32	40.5
2318.26	40
2319.19	39.5
2320.13	47.5
2321.06	38.5
2322	43.5
2322.94	40
2323.87	40.5
2324.81	45
2325.74	39
2326.68	48.5
2327.61	41
2328.55	43.5
2329.48	45
2330.42	44
2331.35	40.5
2332.29	42
2333.22	40.5
2334.16	48
2335.09	40
2336.02	41
2336.96	38.5
2337.89	39
2338.83	45.5
2339.76	40.5
2340.69	41
2341.63	40
2342.56	39.5
2343.49	42
2344.42	44
2345.36	41
2346.29	41.5
2347.22	41
2348.15	45
2349.09	40
2350.02	43.5
2350.95	38
2351.88	42
2352.81	42
2353.74	45.5
2354.68	44
2355.61	39
2356.54	44.5
2357.47	39
2358.4	44.5
2359.33	42.5
2360.26	41.5
2361.19	39
2362.12	46
2363.05	44
2363.98	43
2364.91	42.5
2365.84	43
2366.77	37
2367.7	47
2368.63	37.5
2369.56	46.5
2370.49	41.5
2371.41	41
2372.34	35
2373.27	40
2374.2	45.5
2375.13	44.5
2376.06	44.5
2376.98	38.5
2377.91	42
2378.84	42
2379.77	41
2380.69	44
2381.62	43
2382.55	37
2383.47	40
2384.4	42
2385.33	43
2386.25	41.5
2387.18	43.5
2388.11	43
2389.03	38.5
2389.96	40.5
2390.89	42
2391.81	46.5
2392.74	42.5
2393.66	42.5
2394.59	43.5
2395.51	40.5
2396.44	43
2397.36	42
2398.29	41
2399.21	39.5
2400.14	38
2401.06	44
2401.99	42
2402.91	43
2403.83	41.5
2404.76	40.5
2405.68	41
2406.6	46
2407.53	37
2408.45	47.5
2409.37	37
2410.3	40
2411.22	37.5
2412.14	36
2413.06	42
2413.99	38
2414.91	36.5
2415.83	44.5
2416.75	45
2417.68	39.5
2418.6	41
2419.52	38
2420.44	46
2421.36	39
2422.28	47.5
2423.2	43
2424.12	41
2425.05	40
2425.97	42.5
2426.89	40.5
2427.81	40.5
2428.73	37
2429.65	41.5
2430.57	39
2431.49	42
2432.41	45
2433.33	45
2434.25	37
2435.17	42
2436.08	40
2437	44
2437.92	40.5
2438.84	38.5
2439.76	41
2440.68	41
2441.6	39
2442.51	42
2443.43	46
2444.35	41
2445.27	38.5
2446.19	41
2447.1	40.5
2448.02	40
2448.94	43.5
2449.85	41.5
2450.77	38.5
2451.69	38
2452.61	44.5
2453.52	43
2454.44	37.5
2455.35	39
2456.27	40
2457.19	39
2458.1	45
2459.02	39
2459.94	41
2460.85	39
2461.77	44
2462.68	41.5
2463.6	42
2464.51	39
2465.43	44.5
2466.34	42
2467.25	37.5
2468.17	40
2469.08	41
2470	39.5
2470.91	47
2471.83	40.5
2472.74	43
2473.65	40
2474.57	40.5
2475.48	40
2476.39	39.5
2477.31	39
2478.22	45
2479.13	38
2480.04	40.5
2480.96	42.5
2481.87	43
2482.78	39.5
2483.69	43
2484.6	40
2485.52	38
2486.43	45.5
2487.34	40
2488.25	39
2489.16	41
2490.07	45
2490.99	46
2491.9	44
2492.81	40
2493.72	43
2494.63	45
2495.54	44.5
2496.45	40
2497.36	40.5
2498.27	44
2499.18	44
2500.09	39
2501	49.5
2501.91	40
2502.82	47.5
2503.73	41
2504.63	44.5
2505.54	42
2506.45	43.5
2507.36	39
2508.27	43
2509.18	38
2510.09	46
2510.99	42
2511.9	41
2512.81	38.5
2513.72	41
2514.62	39
2515.53	41
2516.44	45
2517.35	45
2518.25	40
2519.16	48
2520.07	37.5
2520.97	39.5
2521.88	36.5
2522.79	44
2523.69	43.5
2524.6	43
2525.51	42
2526.41	41.5
2527.32	42.5
2528.22	41
2529.13	42.5
2530.03	43
2530.94	43
2531.84	42.5
2532.75	40.5
2533.65	38
2534.56	42
2535.46	38.5
2536.37	38.5
2537.27	45
2538.17	41
2539.08	37
2539.98	39
2540.89	43
2541.79	40
2542.69	35.5
2543.6	42.5
2544.5	40
2545.4	40.5
2546.31	38.5
2547.21	36
2548.11	38
2549.01	44
2549.92	41.5
2550.82	45
2551.72	38.5
2552.62	41
2553.52	39
2554.42	42.5
2555.33	40.5
2556.23	39.5
2557.13	39
2558.03	39.5
2558.93	41
2559.83	41.5
2560.73	40
2561.63	40.5
2562.53	39
2563.43	35.5
2564.33	43
2565.24	40.5
2566.13	35
2567.04	34
2567.93	40.5
2568.83	39
2569.73	39.5
2570.63	40
2571.53	42
2572.43	40.5
2573.33	43
2574.23	38
2575.13	39
2576.03	35.5
2576.92	41
2577.82	45
2578.72	36.5
2579.62	38
2580.52	38
2581.41	38
2582.31	42
2583.21	36.5
2584.11	40
2585	39.5
2585.9	39
2586.8	38.5
2587.69	38.5
2588.59	36.5
2589.49	38.5
2590.38	40.5
2591.28	36
2592.18	39
2593.07	41
2593.97	39
2594.86	40
2595.76	36
2596.66	41
2597.55	39
2598.45	38.5
2599.34	39
2600.24	38
2601.13	41.5
2602.03	43
2602.92	37
2603.81	37.5
2604.71	37.5
2605.6	36
2606.5	35
2607.39	40.5
2608.28	38.5
2609.18	37
2610.07	41.5
2610.97	37.5
2611.86	40
2612.75	36
2613.64	39.5
2614.54	34.5
2615.43	39.5
2616.32	40.5
2617.22	36.5
2618.11	39
2619	40
2619.89	37
2620.78	37.5
2621.68	40
2622.57	36.5
2623.46	40
2624.35	38.5
2625.24	36
2626.13	39.5
2627.02	37.5
2627.91	40
2628.81	38.5
2629.7	46
2630.59	37
2631.48	40
2632.37	35
2633.26	40
2634.15	36
2635.04	38.5
2635.93	39.5
2636.82	40.5
2637.71	40
2638.59	41.5
2639.48	43
2640.37	32
2641.26	37
2642.15	37
2643.04	35.5
2643.93	43
2644.82	38.5
2645.71	41.5
2646.59	38
2647.48	36
2648.37	35.5
2649.26	36.5
2650.15	41.5
2651.03	40.5
2651.92	39
2652.81	40
2653.69	37
2654.58	41.5
2655.47	34
2656.35	38
2657.24	42.5
2658.13	34
2659.01	35
2659.9	35
2660.79	40.5
2661.67	40.5
2662.56	44.5
2663.44	39
2664.33	41
2665.22	37.5
2666.1	42
2666.99	38
2667.87	37.5
2668.76	40
2669.64	35.5
2670.52	35
2671.41	41
2672.29	36
2673.18	40.5
2674.06	41
2674.95	40.5
2675.83	41
2676.71	40.5
2677.6	38
2678.48	39
2679.36	38
2680.25	40
2681.13	41
2682.01	35
2682.9	39.5
2683.78	36.5
2684.66	36
2685.55	41
2686.43	40.5
2687.31	35
2688.19	42
2689.07	42.5
2689.96	40.5
2690.84	36.5
2691.72	37
2692.6	36.5
2693.48	35.5
2694.36	38.5
2695.24	39
2696.12	32
2697	38.5
2697.89	35.5
2698.77	41
2699.65	36
2700.53	34.5
2701.41	35.5
2702.29	36.5
2703.17	37.5
2704.05	35
2704.93	40.5
2705.81	35
2706.69	40.5
2707.57	39
2708.44	39.5
2709.32	34
2710.2	41
2711.08	35.5
2711.96	35.5
2712.84	39.5
2713.72	39
2714.59	37
2715.47	41
2716.35	37
2717.23	38.5
2718.11	39.5
2718.98	40.5
2719.86	38
2720.74	41
2721.62	36.5
2722.49	35
2723.37	35
2724.25	38.5
2725.12	38.5
2726	39.5
2726.88	39
2727.75	44
2728.63	38
2729.51	37
2730.38	36.5
2731.26	39
2732.13	39
2733.01	42
2733.88	35
2734.76	37
2735.63	37
2736.51	39
2737.38	37.5
2738.26	41
2739.13	39.5
2740.01	37
2740.88	39
2741.76	42.5
2742.63	39
2743.5	41
2744.38	39
2745.25	36
2746.13	39
2747	31.5
2747.87	36.5
2748.75	37
2749.62	38.5
2750.49	39
2751.36	39
2752.24	40
2753.11	41
2753.98	38
2754.86	36.5
2755.73	36.5
2756.6	36.5
2757.47	38.5
2758.34	40
2759.22	39.5
2760.09	42
2760.96	42.5
2761.83	42
2762.7	40
2763.57	37.5
2764.44	39.5
2765.31	41.5
2766.18	38.5
2767.06	43
2767.93	39
2768.8	36.5
2769.67	38
2770.54	39
2771.41	41
2772.28	44.5
2773.15	40
2774.02	40.5
2774.89	43
2775.75	44
2776.62	46.5
2777.49	47
2778.36	41
2779.23	42.5
2780.1	50
2780.97	50.5
2781.84	47.5
2782.71	46
2783.57	49
2784.44	48
2785.31	49.5
2786.18	50
2787.04	51.5
2787.91	48
2788.78	55
2789.65	50.5
2790.51	53
2791.38	53.5
2792.25	49.5
2793.12	56.5
2793.98	57
2794.85	57.5
2795.72	60.5
2796.58	61.5
2797.45	61.5
2798.31	54
2799.18	58.5
2800.05	56
2800.91	58.5
2801.78	58.5
2802.64	59
2803.51	60
2804.37	58.5
2805.24	56.5
2806.1	54
2806.97	60.5
2807.83	56.5
2808.7	58
2809.56	65.5
2810.43	58
2811.29	53
2812.15	59.5
2813.02	58.5
2813.88	59
2814.75	57.5
2815.61	60
2816.47	59.5
2817.34	51
2818.2	57
2819.06	58
2819.92	53
2820.79	58
2821.65	56
2822.51	59.5
2823.37	58
2824.24	59
2825.1	54.5
2825.96	56.5
2826.82	57.5
2827.69	59.5
2828.55	53.5
2829.41	58.5
2830.27	55.5
2831.13	58
2831.99	56
2832.85	59
2833.71	53
2834.58	55.5
2835.44	58
2836.3	56
2837.16	56
2838.02	58
2838.88	52.5
2839.74	57.5
2840.6	60
2841.46	52.5
2842.32	61.5
2843.18	64
2844.04	57
2844.9	62
2845.75	58
2846.61	57
2847.47	60.5
2848.33	61.5
2849.19	63
2850.05	61.5
2850.91	60.5
2851.77	62.5
2852.62	62.5
2853.48	59
2854.34	56.5
2855.2	58
2856.06	63.5
2856.91	61
2857.77	58
2858.63	65
2859.48	63.5
2860.34	59.5
2861.2	69
2862.06	67
2862.91	71
2863.77	70.5
2864.63	66.5
2865.48	75.5
2866.34	70
2867.19	71
2868.05	73.5
2868.91	74.5
2869.76	80
2870.62	83
2871.47	91
2872.33	92.5
2873.18	87
2874.04	85
2874.89	87
2875.75	97
2876.6	102
2877.46	98
2878.31	102.5
2879.17	109.5
2880.02	111
2880.88	121
2881.73	123.5
2882.58	126.5
2883.44	128
2884.29	130.5
2885.14	135.5
2886	145.5
2886.85	149.5
2887.7	159
2888.56	170
2889.41	171.5
2890.26	166
2891.12	187
2891.97	200
2892.82	225
2893.67	236
2894.52	243.5
2895.38	257.5
2896.23	280
2897.08	293
2897.93	327.5
2898.78	348
2899.64	371.5
2900.49	387
2901.34	424.5
2902.19	436.5
2903.04	464
2903.89	490
2904.74	491.5
2905.59	509.5
2906.44	519.5
2907.29	515.5
2908.14	508.5
2908.99	483
2909.84	452.5
2910.69	427
2911.54	414
2912.39	375
2913.24	349.5
2914.09	324.5
2914.94	298
2915.79	281
2916.64	261.5
2917.49	236
2918.34	217
2919.18	191.5
2920.03	185
2920.88	177
2921.73	158
2922.58	156.5
2923.42	124
2924.27	139.5
2925.12	132.5
2925.97	124
2926.82	109
2927.66	116
2928.51	109.5
2929.36	111.5
2930.2	96
2931.05	105
2931.9	96.5
2932.74	98
2933.59	91.5
2934.44	88
2935.28	87.5
2936.13	88
2936.98	85.5
2937.82	84.5
2938.67	87
2939.51	84
2940.36	77.5
2941.2	84
2942.05	84.5
2942.9	86
2943.74	84.5
2944.58	88
2945.43	82.5
2946.27	87.5
2947.12	85.5
2947.96	88.5
2948.81	96.5
2949.65	101
2950.5	101
2951.34	105
2952.18	107.5
2953.03	115.5
2953.87	114
2954.71	126.5
2955.56	126
2956.4	137.5
2957.24	149
2958.09	158.5
2958.93	163
2959.77	186
2960.62	191.5
2961.46	206.5
2962.3	208
2963.14	224.5
2963.98	231
2964.83	238
2965.67	234
2966.51	236.5
2967.35	231.5
2968.19	227
2969.04	223.5
2969.88	202.5
2970.72	209
2971.56	193.951
2972.4	183.664
2973.24	179.537
2974.08	165.257
2974.92	152.773
2975.76	147.61
2976.6	140.921
2977.44	131.793
2978.28	126.611
2979.12	109.39
2979.96	112.111
2980.8	106.251
2981.64	103.363
2982.48	99.2421
2983.32	93.3536
2984.16	85.5296
2985	84.8815
2985.84	75.7734
2986.68	78.0121
2987.52	76.1907
2988.35	72.2715
2989.19	71.3024
2990.03	67.7818
2990.87	65.977
2991.71	64.3328
2992.55	64.1966
2993.38	60.4659
2994.22	56.9005
2995.06	59.2738
2995.9	58.4494
2996.73	56.7988
2997.57	57.194
2998.41	58.5926
2999.25	56.6317
3000.08	54.0024
3000.92	49.1965
3001.76	50.8522
3002.59	51.4
3003.43	50.6277
3004.27	49.3185
3005.1	47.9525
3005.94	50.8352
3006.78	49.7908
3007.61	49.0072
3008.45	44.716
3009.28	47.1607
3010.12	44.3566
3010.95	46.7342
3011.79	44.8902
3012.62	45.4783
3013.46	45.0026
3014.29	42.8234
3015.13	44.0518
3015.96	43.5194
3016.8	42.6794
3017.63	42.7225
3018.47	43.0581
3019.3	41.8408
3020.14	38.9071
3020.97	42.6548
3021.8	42.2403
3022.64	41.5241
3023.47	40.9098
3024.3	42.5752
3025.14	40.9792
3025.97	42.1665
3026.8	38.897
3027.64	39.5984
3028.47	42.924
3029.3	41.5077
3030.14	39.1251
3030.97	39.2662
3031.8	40.1758
3032.63	37.7272
3033.46	38.0168
3034.3	39.0084
3035.13	39.1025
3035.96	36.3401
3036.79	37.1608
3037.62	39.3267
3038.46	41.1243
3039.29	41.055
3040.12	41.1224
3040.95	37.8457
3041.78	38.9408
3042.61	39.9056
3043.44	39.8607
3044.27	37.4611
3045.1	37.2874
3045.93	37.7448
3046.76	38.2373
3047.59	38.0647
3048.42	39.5431
3049.25	39.2352
3050.08	41.1287
3050.91	42.3236
3051.74	39.118
3052.57	35.3918
3053.4	37.3122
3054.23	38.399
3055.06	39.1294
3055.89	40.2867
3056.72	38.2156
3057.32	37.5
3058.15	39
3058.98	37
3059.82	40
3060.65	36.5
3061.48	36.5
3062.31	36
3063.15	39
3063.98	37
3064.81	37
3065.64	36.5
3066.48	39
3067.31	37
3068.14	37
3068.97	36
3069.8	38
3070.63	36
3071.47	37
3072.3	37
3073.13	39.5
3073.96	41
3074.79	40
3075.62	36
3076.45	40.5
3077.28	33.5
3078.11	39.5
3078.94	38
3079.77	40.5
3080.6	43
3081.43	38
3082.26	42
3083.09	38
3083.92	39.5
3084.75	44.5
3085.58	41
3086.41	39
3087.24	35
3088.07	40
3088.9	40.5
3089.73	37
3090.55	42.5
3091.38	36
3092.21	37.5
3093.04	38
3093.87	36.5
3094.7	39
3095.52	40.5
3096.35	41
3097.18	33.5
3098.01	40.5
3098.84	38.5
3099.66	38
3100.49	37.5
3101.32	40.5
3102.14	44.5
3102.97	36.5
3103.8	36.5
3104.62	35
3105.45	38.5
3106.28	41
3107.1	43.5
3107.93	43
3108.76	40
3109.58	37.5
3110.41	39.5
3111.23	35
3112.06	38
3112.89	41
3113.71	37.5
3114.54	41
3115.36	40.5
3116.19	37.5
3117.01	42.5
3117.84	38
3118.66	40
3119.49	39.5
3120.31	40
3121.13	45
3121.96	36
3122.78	40
3123.61	37
3124.43	40.5
3125.25	38
3126.08	40.5
3126.9	40.5
3127.73	40
3128.55	38.5
3129.37	39.5
3130.19	34.5
3131.02	39.5
3131.84	38
3132.66	39
3133.49	37.5
3134.31	40
3135.13	37
3135.95	39
3136.78	37.5
3137.6	39
3138.42	35
3139.24	40
3140.06	39.5
3140.88	36
3141.71	36
3142.53	37
3143.35	34
3144.17	33
3144.99	35.5
3145.81	37.5
3146.63	34
3147.45	34
3148.27	32
3149.09	35.5
3149.91	40
3150.73	39.5
3151.56	33
3152.37	30.5
3153.2	37
3154.01	36.5
3154.83	35
3155.65	35.5
3156.47	36.5
3157.29	38
3158.11	34.5
3158.93	36
3159.75	38
3160.57	36.5
3161.39	32.5
3162.21	30
3163.02	35.5
3163.84	36.5
3164.66	34.5
3165.48	36
3166.3	38
3167.11	36.5
3167.93	32.5
3168.75	31
3169.57	35
3170.39	33
3171.2	36
3172.02	31.5
3172.84	33
3173.65	35
3174.47	34
3175.29	36
3176.1	38
3176.92	34
3177.74	34
3178.55	30
3179.37	31
3180.19	35
3181	31
3181.82	32
3182.63	37.5
3183.45	33
3184.27	34
3185.08	34.5
3185.9	30
3186.71	32
3187.53	30.5
3188.34	32
3189.16	38
3189.97	36
3190.79	30.5
3191.6	31
3192.41	34.5
3193.23	37.5
3194.04	35
3194.86	31
3195.67	34
3196.48	34.5
3197.3	34
3198.11	36.5
3198.93	33
3199.74	34
3200.55	28
3201.36	36.5
3202.18	35
3202.99	37.5
3203.8	30
3204.62	35
3205.43	31.5
3206.24	32
3207.05	28.5
3207.87	32.5
3208.68	27.5
3209.49	32.5
3210.3	38.5
3211.11	29.5
3211.93	32
3212.74	33.5
3213.55	31
3214.36	37.5
3215.17	28
3215.98	36.5
3216.79	33.5
3217.6	36.5
3218.41	32
3219.22	29.5
3220.03	29.5
3220.85	31
3221.66	31
3222.47	33
3223.28	31
3224.09	31.5
3224.9	33.5
3225.71	29
3226.52	30
3227.33	35.5
3228.13	31
3228.94	33
3229.75	30
3230.56	34.5
3231.37	30
3232.18	32
3232.99	32
3233.8	34
3234.61	35
3235.41	31.5
3236.22	33.5
3237.03	36
3237.84	35
3238.65	30.5
3239.45	34.5
3240.26	32.5
3241.07	31.5
3241.88	33
3242.68	30
3243.49	36
3244.3	33.5
3245.1	39
3245.91	33
3246.72	36
3247.53	36
3248.33	35
3249.14	33.5
3249.95	27.5
3250.75	32
3251.56	28
3252.36	31
3253.17	34.5
3253.97	36
3254.78	32.5
3255.59	35
3256.39	35
3257.2	34
3258	33.5
3258.81	31
3259.61	28.5
3260.42	30
3261.22	32.5
3262.03	32.5
3262.83	33.5
3263.64	35
3264.44	33
3265.24	32
3266.05	26.5
3266.85	28
3267.66	30
3268.46	31
3269.26	29
3270.07	33.5
3270.87	34.5
3271.67	27
3272.48	30.5
3273.28	36.5
3274.08	27.5
3274.89	32.5
3275.69	34
3276.49	31
3277.29	33
3278.1	28.5
3278.9	30
3279.7	27
3280.5	30.5
3281.3	35.5
3282.11	31.5
3282.91	30
3283.71	31.5
3284.51	29
3285.31	30.5
3286.11	26.5
3286.91	32.5
3287.72	26
3288.52	32
3289.32	31
3290.12	32.5
3290.92	31.5
3291.72	33.5
3292.52	30.5
3293.32	31.5
3294.12	31
3294.92	36
3295.72	29
3296.52	32
3297.32	32
3298.12	30
3298.92	34
3299.72	33
3300.52	31.5
3301.32	30
3302.12	32.5
3302.92	32.5
3303.71	31
3304.51	31
3305.31	33.5
3306.11	28
3306.91	34
3307.71	32
3308.5	32.5
3309.3	30
3310.1	29.5
3310.9	27
3311.7	31
3312.49	32
3313.29	31.5
3314.09	33
3314.89	32.5
3315.68	29.5
3316.48	35
3317.28	25
3318.07	30.5
3318.87	32
3319.67	31
3320.46	31
3321.26	31
3322.06	32.5
3322.85	35
3323.65	29
3324.44	34.5
3325.24	28.5
3326.04	29
3326.83	29
3327.63	31.5
3328.42	31
3329.22	34
3330.01	30
3330.81	34
3331.6	30
3332.4	32
3333.19	32
3333.99	33.5
3334.78	34
3335.58	27.5
3336.37	33.5
3337.17	32
3337.96	32
3338.75	30.5
3339.55	30
3340.34	31
3341.13	32
3341.93	32
3342.72	28.5
3343.51	33.5
3344.31	32
3345.1	34.5
3345.89	30.5
3346.69	29
3347.48	31.5
3348.27	32
3349.06	30
3349.86	31
3350.65	32.5
3351.44	32.5
3352.23	32.5
3353.03	33
3353.82	32
3354.61	30
3355.4	26.5
3356.19	33.5
3356.98	31
3357.78	32.5
3358.57	26.5
3359.36	32.5
3360.15	33
3360.94	28
3361.73	31.5
3362.52	31.5
3363.31	30
3364.1	31
3364.89	31.5
3365.68	32.5
3366.47	31
3367.26	30.5
3368.05	32
3368.84	27
3369.63	31.5
3370.42	27.5
3371.21	32.5
3372	32
3372.79	29
3373.58	33.5
3374.37	27
3375.16	30.5
3375.95	32
3376.73	30
3377.52	32
3378.31	31.5
3379.1	34.5
3379.89	32
3380.68	35
3381.46	31.5
3382.25	33.5
3383.04	32
3383.83	29.5
3384.62	29.5
3385.4	31.5
3386.19	33.5
3386.98	30
3387.76	32
3388.55	33
3389.34	28
3390.13	30
3390.91	32
3391.7	33.5
3392.49	34
3393.27	31.5
3394.06	28
3394.84	29
3395.63	33
3396.42	32.5
3397.2	29
3397.99	26
3398.77	32
3399.56	28
3400.34	31
3401.13	29
3401.92	27
3402.7	35
3403.49	31.5
3404.27	32
3405.06	28
3405.84	27.5
3406.62	30
3407.41	30
3408.19	29.5
3408.98	30
3409.76	28.5
3410.55	27
3411.33	32
3412.11	30
3412.9	31
3413.68	34.5
3414.46	33
3415.25	33.5
3416.03	29.5
3416.81	28
3417.6	30
3418.38	35.5
3419.16	28.5
3419.95	29
3420.73	31
3421.51	33
3422.29	27.5
3423.08	29
3423.86	30
3424.64	31
3425.42	28
3426.2	32.5
3426.98	31.5
3427.77	32
3428.55	30
3429.33	29
3430.11	30
3430.89	32.5
3431.67	29.5
3432.45	26.5
3433.24	31.5
3434.02	34
3434.8	28.5
3435.58	30
3436.36	31
3437.14	31.5
3437.92	31
3438.7	32.5
3439.48	31.5
3440.26	27.5
3441.04	29
3441.82	25.5
3442.6	31
3443.38	26
3444.16	29.5
3444.94	35.5
3445.71	30
3446.49	32
3447.27	34
3448.05	30
3448.83	28
3449.61	29
3450.39	30.5
3451.17	30.5
3451.94	29
3452.72	28.5
3453.5	30
3454.28	28
3455.06	27
3455.83	27
3456.61	29.5
3457.39	32
3458.17	28
3458.94	28.5
3459.72	29.5
3460.5	27
3461.28	31.5
3462.05	29
3462.83	27
3463.61	31
3464.38	33
3465.16	30.5
3465.93	31
3466.71	29
3467.49	30.5
3468.26	31
3469.04	27
3469.82	34.5
3470.59	28.5
3471.37	27
3472.14	28.5
3472.92	28.5
3473.69	23
3474.47	28.5
3475.24	28.5
3476.02	33
3476.79	29
3477.57	32
3478.34	31
3479.12	32
3479.89	33
3480.67	33
3481.44	34
3482.21	28
3482.99	31.5
3483.76	28.5
3484.54	28.5
3485.31	31
3486.08	23
3486.86	30.5
3487.63	33
3488.4	31
3489.18	30
3489.95	33
3490.72	29.5
3491.5	29.5
3492.27	27.5
3493.04	29
3493.81	28
3494.59	26
3495.36	31
3496.13	31.5
3496.9	29.5
3497.67	26
3498.45	27.5
3499.22	27.5
3499.99	27
