#Acq. time (s)=	5
#Accumulations=	5
#Range (cm-¹)=	100...3500
#Windows=	4
#Autofocus=	Off
#AutoExposure=	Off
#Spike filter=	Multiple accum.
#Delay time (s)=	0
#Binning=	1
#Readout mode=	Signal
#DeNoise=	Off
#ICS correction=	Off
#Dark correction=	Off
#Inst. Process=	Off
#Instrument=	LabRAM HR Evol
#Detector=	Syncerity OE
#Objective=	x100_VIS
#Grating=	600 (500nm)
#ND Filter=	25%
#Laser=	633nm_Edge
#Hole=	100.021
#Range=	Visible
#Project=	verificaciones
#Sample=	a4
#Site=	lined
#Title=	bolusa4lined
#Remark=	
#Date=	09.01.2026 15:01
#Acquired=	09.01.2026 15:01:48
100.695	118.5
101.978	123
103.262	114
104.545	122
105.829	124
107.112	128
108.394	126
109.676	121
110.958	127
112.24	134
113.522	120.5
114.803	126.5
116.084	135
117.365	126
118.646	134.5
119.927	134
121.207	143.5
122.487	139.5
123.767	142
125.047	137.5
126.326	142.5
127.606	141
128.885	148.5
130.164	152.5
131.442	151
132.721	160
133.999	159.5
135.277	158
136.555	174
137.831	177.5
139.109	177.5
140.386	176
141.663	182
142.94	182.5
144.216	188
145.493	185.5
146.769	186.5
148.043	193.5
149.319	205.5
150.595	199.5
151.87	205
153.145	216
154.42	215
155.693	213
156.968	213
158.242	220
159.516	216.5
160.79	216.5
162.062	223.5
163.336	216
164.609	218
165.882	211
167.153	200.5
168.426	204
169.699	210
170.971	185
172.241	208
173.513	195.5
174.785	206
176.055	206
177.326	202.5
178.597	204
179.866	206
181.137	216
182.407	203.5
183.676	201
184.946	213.5
186.216	210.5
187.484	221.5
188.753	211
190.022	215
191.29	226
192.558	210
193.825	209.5
195.094	211
196.36	205.5
197.628	207.5
198.896	200
200.162	195.5
201.429	186.5
202.695	193
203.962	183
205.227	185.5
206.493	188
207.758	171
209.024	178
210.289	171.5
211.554	168.5
212.818	163.5
214.083	166
215.347	169
216.612	157
217.875	156.5
219.138	155
220.402	153
221.665	150
222.928	144
224.19	143
225.454	158.5
226.715	134
227.977	144
229.24	130
230.501	136.5
231.762	140
233.024	137.5
234.284	136
235.546	132
236.806	138
238.066	132.5
239.327	130
240.587	125
241.846	122
243.105	127
244.365	131
245.624	133
246.882	127
248.142	122.5
249.4	120.5
250.658	120
251.916	128
253.174	129
254.432	125.5
255.689	118
256.945	123
258.202	121
259.46	126
260.716	119
261.972	128
263.228	124
264.483	122.5
265.74	108
266.996	121
268.251	120
269.505	114.5
270.76	117.5
272.014	115.5
273.268	114
274.522	113
275.778	117.5
277.031	111
278.285	116
279.538	118
280.791	111.5
282.043	115.5
283.296	116
284.548	115
285.8	116
287.052	119
288.304	121
289.556	113.5
290.807	109.5
292.058	111.5
293.309	114.5
294.56	111
295.81	104.5
297.061	116
298.311	107
299.561	112
300.81	113
302.06	121.5
303.309	114
304.558	110
305.807	117.5
307.056	118
308.305	119
309.551	114
310.8	114
312.047	118
313.295	118.5
314.543	113.5
315.79	114.5
317.037	114
318.284	112
319.529	119.5
320.776	117
322.022	110
323.268	115
324.514	117.5
325.758	112.5
327.004	122
328.249	118.5
329.494	115
330.739	111.5
331.982	120
333.227	111
334.471	109.5
335.715	110.5
336.958	118
338.201	115
339.445	116.5
340.687	118.5
341.93	112.5
343.173	115.5
344.414	113
345.657	116
346.899	115
348.14	112
349.381	119.5
350.623	104
351.863	111.5
353.104	111
354.346	115.5
355.585	110
356.826	113
358.065	116.5
359.305	105.5
360.545	114
361.784	109
363.023	117
364.261	110.5
365.501	113
366.738	111
367.977	106.5
369.216	110.5
370.453	118
371.691	116
372.928	111
374.166	106.5
375.402	115.5
376.64	114.5
377.876	114.5
379.111	117.5
380.348	106
381.584	115
382.82	117
384.055	118.5
385.291	109.5
386.526	113
387.76	115.5
388.996	116
390.229	106.5
391.465	106.5
392.698	107.5
393.931	111.5
395.166	110.5
396.399	116
397.632	106.5
398.866	111.5
400.098	115.5
401.33	103.5
402.563	108.5
403.795	100.5
405.027	110.5
406.259	109
407.491	111
408.721	115.5
409.954	113.5
411.184	113.5
412.415	120
413.645	110.5
414.876	113
416.106	113.5
417.335	115.5
418.565	115
419.794	113
421.024	111.5
422.253	112.5
423.482	106
424.71	109
425.938	115
427.168	108.5
428.396	115
429.623	113
430.851	114.5
432.078	112.5
433.305	113
434.532	115.5
435.758	111
436.986	117
438.212	108
439.438	117.5
440.664	111.5
441.89	121.5
443.115	115.5
444.34	115.5
445.566	115.5
446.79	122.5
448.015	122.5
449.24	123.5
450.464	123
451.688	117
452.912	122
454.135	118
455.359	123
456.582	124
457.805	131.5
459.028	126.5
460.251	126
461.473	123.5
462.696	136.5
463.918	131.5
465.14	131
466.36	140.5
467.582	135.5
468.803	151.5
470.024	163.5
471.245	158.5
472.466	160.5
473.686	179
474.907	184
476.126	199
477.346	224.5
478.565	236.5
479.785	270.5
481.004	280.5
482.224	301.5
483.441	328
484.66	349
485.879	378.5
487.097	368
488.314	383.5
489.532	400.5
490.75	376.5
491.967	372
493.184	359.5
494.401	352.5
495.618	326.5
496.835	308
498.05	288
499.267	276.5
500.483	266.5
501.698	246
502.913	242.5
504.129	221
505.343	214.5
506.559	203
507.774	190.5
508.987	189
510.202	188
511.415	181
512.63	169.5
513.844	166.5
515.056	171
516.27	154
517.482	155
518.696	146
519.907	138
521.121	146
522.332	150
523.545	138
524.757	140
525.968	132
527.18	135
528.39	131.5
529.602	129
530.812	130.5
532.023	128
533.233	121
534.443	128
535.653	124
536.862	124.5
538.073	123.5
539.281	121
540.491	123
541.7	127
542.908	130
544.117	117.5
545.325	114.5
546.534	127
547.741	110.5
548.949	116
550.157	117.5
551.364	113
552.57	116
553.778	113.5
554.985	122
556.191	117
557.398	119
558.604	121
559.809	109
561.014	107
562.221	115
563.426	114.5
564.63	122.5
565.835	107
567.041	113.5
568.245	108.5
569.449	108
570.653	111.5
571.856	107.5
573.061	104
574.264	113.5
575.467	106
576.67	105.5
577.873	110.5
579.076	107.5
580.279	107
581.481	103
582.683	111
583.884	115
585.086	112.5
586.287	107.5
587.488	104.5
588.689	111.5
589.891	109.5
591.092	108
592.292	112
593.492	113.5
594.692	112
595.892	114
597.092	109.5
598.291	108
599.49	110.5
600.689	109
601.888	114.5
603.087	103.5
604.285	109
605.483	111
606.681	110
607.879	109
609.077	116
610.274	106.5
611.472	118
612.668	106
613.865	108.5
615.061	110
616.258	111
617.454	110
618.65	110
619.846	107
621.042	105
622.238	114
623.432	112.5
624.627	110
625.822	116
627.017	110
628.212	111
629.406	115
630.599	108.5
631.793	115.5
632.987	111
634.181	110
635.373	114
636.566	114.5
637.76	118
638.953	117
640.144	121
641.337	121
642.529	108
643.721	124
644.912	119
646.104	111.5
647.295	116
648.485	112
649.677	113.5
650.868	117
652.057	117
653.248	117.5
654.437	115
655.628	121.5
656.818	112.5
658.006	113.5
659.196	115.5
660.384	117
661.574	123
662.763	116
663.951	116.5
665.14	121
666.327	120
667.515	123
668.702	121.5
669.891	121
671.077	118.5
672.265	128.5
673.451	125.5
674.638	133.5
675.824	142.5
677.011	139
678.197	134.5
679.383	137
680.568	148
681.755	145.5
682.939	156
684.124	172
685.309	162
686.494	180
687.679	170.5
688.863	173
690.046	164
691.231	163
692.414	159
693.599	167.5
694.781	165
695.964	165
697.148	167.5
698.33	179
699.512	169
700.694	188.5
701.877	199
703.059	205
704.24	234.5
705.423	245.5
706.604	282
707.784	294
708.965	308
710.147	310.5
711.327	278.5
712.507	252.5
713.687	228
714.867	192
716.048	178
717.227	167.5
718.406	152
719.585	133.5
720.764	140.5
721.942	136
723.122	131
724.3	118
725.478	118.5
726.656	118.5
727.834	117
729.011	122
730.189	116.5
731.366	110
732.543	116.5
733.719	114.5
734.896	117.5
736.072	116.5
737.249	112.5
738.426	113
739.602	100.5
740.777	113
741.953	113
743.128	108
744.303	112.5
745.477	111.5
746.651	120.5
747.826	108
749	111.5
750.174	111
751.348	113.5
752.522	115
753.696	111
754.869	113.5
756.043	111.5
757.216	108.5
758.389	109
759.561	112.5
760.732	116
761.905	113.5
763.077	112
764.249	107.5
765.421	110
766.592	103
767.762	106.5
768.934	101
770.105	101
771.275	115
772.446	105.5
773.615	109.5
774.786	107.5
775.956	113.5
777.126	118.5
778.294	116.5
779.464	114.5
780.633	123
781.801	120
782.97	127.5
784.139	123
785.306	134
786.475	132.5
787.643	146
788.81	129
789.978	136
791.146	134
792.312	139
793.479	130
794.647	130.5
795.812	131.5
796.979	121.5
798.144	127.5
799.311	122.5
800.477	115
801.642	122.5
802.808	120
803.972	117
805.138	118.5
806.302	114.5
807.467	115
808.631	107.5
809.796	118
810.959	103
812.124	103.5
813.287	109.5
814.451	112
815.614	109.5
816.777	109
817.94	110
819.102	108
820.265	106
821.427	105
822.59	103
823.751	108.5
824.912	98.5
826.074	109
827.235	104
828.397	110.5
829.558	108
830.718	106
831.879	106.5
833.039	101.5
834.199	106
835.359	110
836.519	103
837.679	108.5
838.838	110
839.998	111
841.156	105
842.315	115.5
843.473	104
844.633	110
845.791	108.5
846.948	104.5
848.106	106.5
849.263	106.5
850.422	112.5
851.579	114.5
852.736	117.5
853.892	114
855.049	113.5
856.205	113
857.363	120.5
858.519	121
859.674	118.5
860.83	119
861.986	129.5
863.141	117
864.296	118
865.451	113
866.605	118
867.76	117
868.914	115
870.069	121
871.224	113
872.378	106.5
873.531	116
874.685	111.5
875.838	109.5
876.991	111.5
878.144	106.5
879.296	111.5
880.448	112.5
881.6	109.5
882.753	106
883.905	98
885.057	108
886.208	111
887.36	100.5
888.511	100.5
889.662	108.5
890.813	107.5
891.964	98
893.113	100.5
894.264	95.5
895.414	100
896.564	98.5
897.714	100
898.864	90.5
900.012	98
901.161	98
902.31	96.5
903.459	102
904.607	92.5
905.756	99
906.904	99
908.052	96
909.199	99
910.347	96.5
911.495	98.5
912.643	97
913.789	100
914.936	102
916.083	94
917.229	92.5
918.375	100
919.522	97.5
920.667	89
921.813	98
922.959	92
924.104	96.5
925.249	94.5
926.393	98.5
927.539	98.5
928.684	97.5
929.827	102.5
930.972	94
932.115	100
933.26	91
934.403	98.5
935.547	98.5
936.689	97
937.833	100
938.975	90.5
940.119	97.5
941.26	90.5
942.404	91.5
943.545	90.5
944.688	98
945.829	94.5
946.971	94.5
948.112	93.5
949.253	99
950.394	93
951.535	92.5
952.676	97.5
953.816	95.5
954.956	94.5
956.097	97.5
957.236	99.5
958.377	97.5
959.516	99
960.655	101.5
961.793	94.5
962.933	94.5
964.071	101
965.21	102.5
966.349	94
967.487	102
968.624	99.5
969.762	91
970.901	96
972.038	100.5
973.175	94.5
974.311	103.5
975.449	92.5
976.586	101
977.722	93
978.858	101.5
979.994	97
981.131	102
982.267	102
983.402	101
984.537	93.5
985.672	96.5
986.807	98
987.942	97
989.076	101
990.211	95.5
991.346	98.5
992.48	91.5
993.614	98
994.748	99
995.881	101.5
997.014	95
998.148	90
999.28	95
1000.41	91.5
1001.55	91
1002.68	94
1003.81	95.5
1004.94	99.5
1006.07	103.5
1007.21	94.5
1008.34	99
1009.47	95.5
1010.6	90.5
1011.73	90
1012.86	99.5
1013.99	100.5
1015.12	102
1016.25	102
1017.38	93
1018.51	97.5
1019.64	100
1020.77	95.5
1021.9	97.5
1023.03	92.5
1024.16	97
1025.29	97.5
1026.42	105
1027.54	96
1028.67	96
1029.8	97.5
1030.93	101.5
1032.06	96
1033.18	101.5
1034.31	100
1035.44	99.5
1036.56	101.5
1037.69	96
1038.82	100
1039.94	96
1041.07	101.5
1042.2	100.5
1043.32	92.5
1044.45	107
1045.57	95
1046.7	96.5
1047.82	100
1048.95	97.5
1050.07	93
1051.2	93.5
1052.32	95
1053.45	100
1054.57	90
1055.69	101.5
1056.82	95
1057.94	105.5
1059.06	91.5
1060.19	93
1061.31	94
1062.43	96.5
1063.55	105
1064.68	91.5
1065.8	95
1066.92	98.5
1068.04	90
1069.16	99.5
1070.28	104.5
1071.41	94
1072.53	96
1073.65	102
1074.77	95
1075.89	95.5
1077.01	100
1078.13	94.5
1079.25	99
1080.37	93.5
1081.49	99
1082.61	90
1083.73	95.5
1084.85	93.5
1085.96	81
1087.08	95
1088.2	95.5
1089.32	102
1090.44	94
1091.56	97.5
1092.67	97
1093.79	92.5
1094.91	90
1096.03	91
1097.14	94
1098.26	89.5
1099.38	94
1100.49	96
1101.61	94
1102.73	98.5
1103.84	100.5
1104.96	93
1106.07	92.5
1107.19	88.5
1108.3	93
1109.42	96
1110.53	95
1111.65	91
1112.76	96
1113.88	90
1114.99	99.5
1116.1	92.5
1117.22	96
1118.33	96.5
1119.44	90.5
1120.56	86
1121.67	89.5
1122.78	94.5
1123.9	96.5
1125.01	90
1126.12	101.5
1127.23	92
1128.34	90
1129.46	91
1130.57	96
1131.68	85
1132.79	96.5
1133.9	98
1135.01	89
1136.12	91
1137.23	92.5
1138.34	88
1139.45	93.5
1140.56	91
1141.67	92
1142.78	93
1143.89	94
1145	87
1146.11	90
1147.22	96
1148.33	91
1149.44	91.5
1150.54	96.5
1151.65	89.5
1152.76	91.5
1153.87	89
1154.97	93.5
1156.08	94.5
1157.19	88.5
1158.3	90.5
1159.4	88
1160.51	87.5
1161.62	88
1162.72	93
1163.83	93
1164.93	100
1166.04	91.5
1167.15	85
1168.25	93.5
1169.36	93
1170.46	87.5
1171.57	90
1172.67	87
1173.78	94.5
1174.88	86
1175.98	90
1177.09	91.5
1178.19	96
1179.3	95.5
1180.4	99
1181.5	95.5
1182.61	87
1183.71	96.5
1184.81	93
1185.91	100
1187.02	95.5
1188.12	97
1189.22	92.5
1190.32	91.5
1191.42	86.5
1192.53	92
1193.63	84
1194.73	92.9358
1195.83	84.3734
1196.93	89.3474
1198.03	93.7202
1199.13	92.4472
1200.23	84.8814
1201.33	89.7862
1202.43	86.3214
1203.53	92.1876
1204.63	90.2778
1205.73	85.008
1206.83	85.9133
1207.93	81.1674
1209.02	88.6673
1210.12	84.9685
1211.22	87.2061
1212.32	90.6406
1213.42	85.2911
1214.52	89.4594
1215.61	89.2
1216.71	89.1648
1217.81	87.652
1218.91	90.467
1220	90.3332
1221.1	88.0115
1222.2	86.8101
1223.29	93.127
1224.39	86.9019
1225.49	87.8447
1226.58	89.3905
1227.68	86.2567
1228.77	85.9614
1229.87	88.964
1230.96	85.0502
1232.06	82.3982
1233.15	85.164
1234.25	83.2783
1235.34	84.7083
1236.44	86.4915
1237.53	86.3301
1238.63	87.5351
1239.72	85.956
1240.81	89.2754
1241.91	86.3377
1243	87.3147
1244.09	88.7919
1245.19	82.1889
1246.28	89.994
1247.37	85.6143
1248.46	83.3948
1249.56	89.55
1250.65	86.0247
1251.74	89.3936
1252.83	94.5565
1253.92	93.9599
1255.01	104.407
1256.11	94.0823
1257.2	97.0071
1258.29	98.4802
1259.38	97.1161
1260.47	103.884
1261.56	98.1969
1262.65	99.542
1263.74	101.38
1264.83	98.7457
1265.92	96.454
1267.01	98.4589
1268.1	90.9065
1269.19	90.3841
1270.27	92.2197
1271.36	88.2778
1272.45	87.3398
1273.54	84.8162
1274.63	85.6019
1275.72	84.0607
1276.8	83.9965
1277.89	87.3085
1278.98	80.1341
1280.07	80.9572
1281.15	81.7648
1282.24	83.7155
1283.33	83.7245
1284.41	78.0845
1285.5	82.1229
1286.59	80.8478
1287.67	84.4268
1288.76	86.0677
1289.84	81.3653
1290.93	80.8165
1292.01	81.202
1293.1	79.1638
1294.19	82.7514
1295.27	74.9867
1296.35	79.1844
1297.44	82.0965
1298.52	77.0483
1299.61	79.3856
1300.69	80.9327
1301.78	84.2365
1302.86	80.2062
1303.94	74.611
1305.03	79.368
1306.11	82.263
1306.4	82.5
1307.49	76
1308.57	76.5
1309.66	77
1310.75	82
1311.84	80.5
1312.92	77
1314.01	72.5
1315.1	74
1316.19	77
1317.27	80
1318.36	82.5
1319.45	79.5
1320.53	85.5
1321.62	79
1322.7	75.5
1323.79	80.5
1324.88	77.5
1325.96	76.5
1327.05	79
1328.13	84
1329.21	80
1330.3	78
1331.38	75
1332.47	76
1333.55	79
1334.64	72
1335.72	79.5
1336.8	76.5
1337.89	82.5
1338.97	85
1340.05	79.5
1341.14	73.5
1342.22	83.5
1343.3	79
1344.39	71
1345.47	83.5
1346.55	84
1347.63	77
1348.71	78
1349.79	80.5
1350.88	79.5
1351.96	79.5
1353.04	80.5
1354.12	82.5
1355.2	82
1356.28	77
1357.36	74
1358.44	75
1359.52	80
1360.6	84
1361.68	74.5
1362.76	81
1363.84	79.5
1364.92	82
1366	75
1367.08	80.5
1368.16	80
1369.23	79
1370.31	80
1371.39	86
1372.47	76
1373.55	87
1374.62	81.5
1375.7	77.5
1376.78	78.5
1377.85	77
1378.93	81.5
1380.01	85.5
1381.09	88
1382.16	79
1383.24	85.5
1384.31	84
1385.39	87.5
1386.47	86
1387.54	86.5
1388.62	90.5
1389.69	89.5
1390.77	85
1391.84	90
1392.92	91
1393.99	95
1395.06	94
1396.14	98
1397.21	101
1398.29	95
1399.36	102
1400.43	107.5
1401.51	108
1402.58	120.5
1403.65	111
1404.73	119
1405.8	117
1406.87	109
1407.94	117.5
1409.02	119
1410.09	116
1411.16	130
1412.23	131.5
1413.3	122
1414.37	129
1415.45	114
1416.52	116
1417.59	112.5
1418.66	105.5
1419.73	111.5
1420.8	109.5
1421.87	98.5
1422.94	104
1424.01	105
1425.08	100
1426.15	97.5
1427.22	91
1428.29	91
1429.35	93
1430.42	88.5
1431.49	91.5
1432.56	86.5
1433.63	88
1434.7	85.5
1435.77	84
1436.83	80
1437.9	87.5
1438.97	85
1440.04	86.5
1441.1	88
1442.17	86
1443.24	85
1444.3	87.5
1445.37	84
1446.44	79
1447.5	81.5
1448.57	80.5
1449.63	84.5
1450.7	81.5
1451.76	82.5
1452.83	80.5
1453.89	81.5
1454.96	82
1456.02	84.5
1457.09	79
1458.15	78
1459.22	85.5
1460.28	72
1461.34	78.5
1462.41	81
1463.47	80.5
1464.54	77.5
1465.6	82.5
1466.66	83.5
1467.72	81.5
1468.79	79.5
1469.85	78
1470.91	83.5
1471.97	89
1473.04	84.5
1474.1	81
1475.16	77.5
1476.22	82
1477.28	78.5
1478.34	81
1479.4	79
1480.47	80
1481.53	85
1482.59	81
1483.65	78.5
1484.71	85
1485.77	83.5
1486.83	84
1487.89	82.5
1488.95	83
1490.01	85.5
1491.07	74
1492.12	80.5
1493.18	87
1494.24	78
1495.3	83.5
1496.36	86.5
1497.42	78.5
1498.47	82
1499.53	79
1500.59	81.5
1501.65	80.5
1502.7	81.5
1503.76	78
1504.82	73
1505.88	71.5
1506.93	73.5
1507.99	79
1509.05	82.5
1510.1	78
1511.16	75
1512.21	84
1513.27	76.5
1514.32	80
1515.38	79.5
1516.43	79.5
1517.49	77
1518.54	77.5
1519.6	83
1520.65	80
1521.71	82.5
1522.76	78.5
1523.82	75
1524.87	80.5
1525.92	80
1526.98	78
1528.03	76
1529.08	78
1530.14	80
1531.19	83
1532.24	76
1533.3	70
1534.35	72
1535.4	77
1536.45	78.5
1537.5	75
1538.56	73.5
1539.61	81
1540.66	77
1541.71	75.5
1542.76	73.5
1543.81	74.5
1544.86	83
1545.91	73
1546.96	73.5
1548.01	79
1549.06	76
1550.11	73.5
1551.16	82
1552.21	74
1553.26	79
1554.31	74.5
1555.36	78.5
1556.41	79
1557.46	74.5
1558.51	72
1559.55	72.5
1560.6	78
1561.65	77
1562.7	78.5
1563.75	82.5
1564.79	71
1565.84	70
1566.89	76
1567.94	69.5
1568.98	67.5
1570.03	68
1571.07	68.5
1572.12	74.5
1573.17	77
1574.21	80
1575.26	72
1576.31	71
1577.35	72
1578.4	75.5
1579.44	70.5
1580.49	70.5
1581.53	69.5
1582.58	80
1583.62	78
1584.67	71
1585.71	78.5
1586.75	70
1587.8	75.5
1588.84	66.5
1589.89	74
1590.93	74
1591.97	79.5
1593.02	76.5
1594.06	70.5
1595.1	70
1596.14	76.5
1597.19	69
1598.23	72
1599.27	73
1600.31	74.5
1601.35	77
1602.4	70
1603.44	75.5
1604.48	73
1605.52	73
1606.56	79
1607.6	76.5
1608.64	73.5
1609.68	71.5
1610.72	73.5
1611.76	66
1612.8	74
1613.84	73
1614.88	68
1615.92	72
1616.96	69
1618	74
1619.04	75
1620.08	67
1621.12	67
1622.16	71
1623.19	70
1624.23	73
1625.27	74
1626.31	77
1627.35	71.5
1628.38	75
1629.42	77
1630.46	71.5
1631.5	73
1632.53	72
1633.57	73.5
1634.61	70
1635.64	65
1636.68	77
1637.71	66
1638.75	75.5
1639.79	73
1640.82	70
1641.86	74
1642.89	72.5
1643.93	67
1644.96	76.5
1646	71.5
1647.03	70
1648.07	64
1649.1	75
1650.14	65
1651.17	69
1652.2	69.5
1653.24	68.5
1654.27	72
1655.3	76
1656.34	73
1657.37	69
1658.4	69.5
1659.44	71.5
1660.47	68
1661.5	72.5
1662.53	70.5
1663.57	70.5
1664.6	67
1665.63	74
1666.66	69.5
1667.69	68
1668.72	68
1669.75	75
1670.79	65
1671.82	68
1672.85	64.5
1673.88	67
1674.91	70
1675.94	65.5
1676.97	67
1678	74.5
1679.03	74
1680.06	67.5
1681.09	73.5
1682.11	64
1683.14	70
1684.17	69.5
1685.2	66.5
1686.23	71
1687.26	72
1688.29	64.5
1689.32	68.5
1690.34	66.5
1691.37	66
1692.4	72
1693.43	73
1694.45	68
1695.48	67
1696.51	69.5
1697.53	67.5
1698.56	68
1699.59	65.5
1700.61	65
1701.64	63
1702.66	66
1703.69	65
1704.72	63.5
1705.74	68
1706.77	62
1707.79	66
1708.82	66
1709.84	66.5
1710.87	72
1711.89	62.5
1712.92	64.5
1713.94	66.5
1714.96	70.5
1715.99	66
1717.01	65.5
1718.04	67.5
1719.06	65
1720.08	70.5
1721.11	70.5
1722.13	62
1723.15	67
1724.17	67
1725.2	64.5
1726.22	67.5
1727.24	65
1728.26	69
1729.28	67
1730.31	63.5
1731.33	68.5
1732.35	66.5
1733.37	62.5
1734.39	68
1735.41	70.5
1736.43	65.5
1737.45	66
1738.47	68
1739.49	69.5
1740.51	66.5
1741.53	69.5
1742.55	68
1743.57	67
1744.59	70.5
1745.61	64
1746.63	68
1747.65	67.5
1748.67	73
1749.69	60
1750.71	58
1751.72	62.5
1752.74	73
1753.76	63
1754.78	65
1755.8	63
1756.81	66
1757.83	67
1758.85	73
1759.86	65
1760.88	69
1761.9	61
1762.91	64
1763.93	65
1764.95	63.5
1765.96	62
1766.98	67.5
1768	66.5
1769.01	63
1770.03	69
1771.04	69.5
1772.06	69
1773.07	60
1774.09	69
1775.1	65.5
1776.12	68
1777.13	71.5
1778.14	66.5
1779.16	70
1780.17	64
1781.19	58.5
1782.2	60.5
1783.21	73
1784.23	68.5
1785.24	65.5
1786.25	64.5
1787.27	59
1788.28	67.5
1789.29	68.5
1790.3	66
1791.32	64
1792.33	62.5
1793.34	62
1794.35	65
1795.36	67.5
1796.37	65
1797.38	60
1798.4	67
1799.41	64
1800.42	67
1801.43	68.5
1802.44	64.5
1803.45	59.5
1804.46	60.5
1805.47	69
1806.48	63.5
1807.49	67.5
1808.5	66.5
1809.51	56
1810.52	63
1811.53	66
1812.53	65
1813.54	70
1814.55	59
1815.56	63
1816.57	67.5
1817.58	64
1818.58	63.5
1819.59	62
1820.6	63.5
1821.61	57.5
1822.61	64
1823.62	62
1824.63	64
1825.64	57
1826.64	67
1827.65	62.5
1828.66	64.5
1829.66	64
1830.67	61
1831.67	61
1832.68	62
1833.68	60.5
1834.69	60.5
1835.7	60
1836.7	60
1837.71	63
1838.71	64.5
1839.71	68
1840.72	60
1841.72	63.5
1842.73	65
1843.73	61.5
1844.74	63
1845.74	57
1846.74	59.5
1847.75	61.5
1848.75	67.5
1849.75	62.5
1850.76	60.5
1851.76	62.5
1852.76	62
1853.76	61
1854.77	65
1855.77	64
1856.77	69
1857.77	65
1858.77	61.5
1859.78	64
1860.78	57
1861.78	60.5
1862.78	59
1863.78	66
1864.78	60.5
1865.78	63
1866.78	58.5
1867.78	64
1868.78	58.5
1869.78	59.5
1870.78	63
1871.78	61
1872.78	54.5
1873.78	59.5
1874.78	57.5
1875.78	61
1876.78	59
1877.78	62
1878.78	63
1879.77	59.5
1880.77	59.5
1881.77	60.5
1882.77	59
1883.77	63.5
1884.76	59.5
1885.76	64.5
1886.76	62
1887.76	57
1888.75	63
1889.75	58
1890.75	62
1891.74	61
1892.74	56.5
1893.74	58
1894.73	56.5
1895.73	57.5
1896.72	57
1897.72	55
1898.72	59
1899.71	58
1900.71	61.5
1901.7	55
1902.7	58
1903.69	60.5
1904.69	59
1905.68	61.5
1906.67	62
1907.67	60
1908.66	64.5
1909.66	64.5
1910.65	62
1911.64	62.5
1912.64	64.5
1913.63	61.5
1914.62	57
1915.62	63
1916.61	54.5
1917.6	58
1918.59	61.5
1919.59	59.5
1920.58	64
1921.57	66
1922.56	59
1923.55	55.5
1924.55	56
1925.54	59.5
1926.53	65.5
1927.52	59
1928.51	60.5
1929.5	52
1930.49	57.5
1931.48	59.5
1932.47	57.5
1933.46	64
1934.45	60
1935.44	61.5
1936.43	63
1937.42	65.5
1938.41	62
1939.4	56.5
1940.39	62
1941.38	63
1942.37	56
1943.36	57
1944.34	61.5
1945.33	57.5
1946.32	61.5
1947.31	58
1948.3	56.5
1949.28	55
1950.27	58
1951.26	55
1952.25	59.5
1953.23	57
1954.22	61.5
1955.21	51.5
1956.2	55.5
1957.18	57.5
1958.17	63
1959.15	55
1960.14	54
1961.13	63
1962.11	61.5
1963.1	61
1964.08	61.5
1965.07	59
1966.05	59.5
1967.04	57
1968.02	63
1969.01	58
1969.99	58
1970.98	56
1971.96	60
1972.94	63.5
1973.93	61
1974.91	57.5
1975.9	57.5
1976.88	55
1977.86	59
1978.85	54
1979.83	61
1980.81	55
1981.8	63
1982.78	55
1983.76	60
1984.74	60
1985.72	52
1986.71	55
1987.69	57
1988.67	52
1989.65	61
1990.63	60.5
1991.61	60
1992.6	58
1993.58	56
1994.56	59
1995.54	59
1996.52	58.5
1997.5	58.5
1998.48	62
1999.46	56.5
2000.44	58
2001.42	58
2002.4	61
2003.38	58.5
2004.36	55
2005.34	57
2006.32	58
2007.29	53.5
2008.27	49.5
2009.25	57
2010.23	54
2011.21	56
2012.19	56
2013.16	57
2014.14	58.5
2015.12	57
2016.1	57
2017.07	56
2018.05	53.5
2019.03	56
2020	54
2020.98	56
2021.96	61
2022.93	58
2023.91	60
2024.89	57.5
2025.86	59
2026.84	54
2027.81	57
2028.79	57
2029.77	54.5
2030.74	61
2031.72	56
2032.69	52.5
2033.67	54
2034.64	57
2035.61	54.5
2036.59	54.5
2037.56	57
2038.54	60
2039.51	55
2040.48	60.5
2041.46	53.5
2042.43	55
2043.41	51
2044.38	54
2045.35	60
2046.32	59.5
2047.3	55
2048.27	55
2049.24	58
2050.21	58.5
2051.19	59
2052.16	54.5
2053.13	55.5
2054.1	59
2055.07	56
2056.04	56.5
2057.02	54
2057.99	59.5
2058.96	58.5
2059.93	52
2060.9	51.5
2061.87	48
2062.84	54.5
2063.81	54
2064.78	57
2065.75	53
2066.72	53
2067.69	59
2068.66	59.5
2069.63	59
2070.6	57
2071.57	54
2072.53	56
2073.5	54.5
2074.47	59
2075.44	52.5
2076.41	52
2077.38	52.5
2078.34	53
2079.31	56.5
2080.28	52
2081.25	55
2082.21	55
2083.18	51.5
2084.15	51
2085.12	59.5
2086.08	46
2087.05	54.5
2088.02	50
2088.98	54
2089.95	50
2090.91	54
2091.88	48.5
2092.85	57
2093.81	53.5
2094.78	55
2095.74	56
2096.71	50.5
2097.67	51.5
2098.64	55.5
2099.6	57.5
2100.57	57
2101.53	53.5
2102.5	57.5
2103.46	57
2104.42	56.5
2105.39	57
2106.35	48.5
2107.31	55
2108.28	56.5
2109.24	53
2110.2	52
2111.17	55
2112.13	51
2113.09	50
2114.06	53
2115.02	43.5
2115.98	58
2116.94	47.5
2117.9	56.5
2118.86	50.5
2119.83	52.5
2120.79	55.5
2121.75	54.5
2122.71	52.5
2123.67	53
2124.63	53.5
2125.59	54.5
2126.55	57
2127.51	53.5
2128.48	50.5
2129.43	53
2130.4	52
2131.35	55
2132.31	57.5
2133.27	56
2134.23	54.5
2135.19	55.5
2136.15	60
2137.11	57.5
2138.07	48.5
2139.03	53.5
2139.99	44.5
2140.95	50
2141.9	55.5
2142.86	49.9888
2143.82	48.9904
2144.78	52.0411
2145.74	52.1695
2146.69	50.5346
2147.65	52.3101
2148.61	49.9198
2149.56	52.4928
2150.52	54.2551
2151.48	53.4872
2152.44	56.2044
2153.39	49.749
2154.35	53.2535
2155.3	54.8447
2156.26	48.4667
2157.22	52.1984
2158.17	48.4093
2159.13	51.9792
2160.08	52.1545
2161.04	52.9162
2161.99	49.9256
2162.95	50.0801
2163.9	52.4327
2164.86	51.4595
2165.81	53.0782
2166.77	49.926
2167.72	50.6721
2168.68	52.0884
2169.63	49.5609
2170.58	52.4
2171.54	48.1879
2172.49	52.2803
2173.44	52.2358
2174.4	50.6636
2175.35	50.4915
2176.3	47.3495
2177.26	48.3605
2178.21	51.3399
2179.16	50.8928
2180.11	48
2181.07	49.2531
2182.02	53.4202
2182.97	49.8683
2183.92	49.8972
2184.88	51.9144
2185.83	52.4412
2186.78	48.1456
2187.73	47.7386
2188.68	50.7084
2189.63	47.5717
2190.58	48.8538
2191.53	45.3399
2192.48	47.2759
2193.43	48.4911
2194.38	50.6289
2195.33	50.0054
2196.28	47.7899
2197.23	50.3676
2198.18	50.7645
2199.13	51.141
2200.08	45.4175
2201.03	49.887
2201.98	48.7776
2202.93	48.6845
2203.88	51.8156
2204.83	48.2892
2205.78	47.5728
2206.72	45.1642
2207.67	50.1583
2208.62	50.6345
2209.57	48.5357
2210.52	45.67
2211.46	46.5845
2212.41	46.432
2213.36	46.6602
2214.31	47.6069
2215.25	49.299
2216.2	46.8193
2217.15	46.4871
2218.09	45.951
2219.04	46.5095
2219.99	43.7231
2220.93	49.5165
2221.88	47.5453
2222.83	47.5641
2223.77	45.2373
2224.72	46.1463
2225.66	45.9093
2226.61	46.196
2227.55	50.6693
2228.5	48.4795
2229.44	48.2012
2230.39	44.1158
2231.33	45.7239
2232.28	45.7888
2233.22	48.0295
2234.17	48.9434
2235.11	47.1945
2236.05	47.5417
2237	48.6165
2237.94	46.6468
2238.88	41.7265
2239.83	47.9171
2240.04	50
2240.98	42
2241.93	49.5
2242.88	46
2243.83	47
2244.78	47.5
2245.72	47
2246.67	45.5
2247.62	48.5
2248.56	45
2249.51	52
2250.46	46
2251.4	46.5
2252.35	51
2253.3	49.5
2254.24	51
2255.19	46
2256.14	47.5
2257.08	50
2258.03	47
2258.97	46
2259.92	45
2260.86	48
2261.81	47
2262.75	47
2263.7	47.5
2264.64	44.5
2265.59	52
2266.53	48
2267.48	49
2268.42	54.5
2269.36	47.5
2270.31	48.5
2271.25	50
2272.19	50.5
2273.14	46
2274.08	47
2275.02	50.5
2275.97	45.5
2276.91	47
2277.85	47.5
2278.8	44.5
2279.74	48.5
2280.68	49.5
2281.62	47
2282.56	48
2283.51	49
2284.45	44
2285.39	47.5
2286.33	50
2287.27	45
2288.21	45
2289.15	46.5
2290.09	46
2291.04	47.5
2291.98	46.5
2292.92	41
2293.86	42.5
2294.8	50.5
2295.74	43.5
2296.68	47
2297.62	49
2298.56	45.5
2299.5	46.5
2300.44	43
2301.37	45
2302.31	47.5
2303.25	45
2304.19	45
2305.13	47
2306.07	46.5
2307.01	47.5
2307.94	49
2308.88	46
2309.82	51.5
2310.76	44.5
2311.7	48.5
2312.63	44.5
2313.57	38.5
2314.51	48.5
2315.44	46
2316.38	47.5
2317.32	44.5
2318.26	43
2319.19	44
2320.13	45
2321.06	46.5
2322	43
2322.94	42
2323.87	49
2324.81	46
2325.74	44.5
2326.68	50
2327.61	45.5
2328.55	45
2329.48	48.5
2330.42	47.5
2331.35	44.5
2332.29	46
2333.22	48
2334.16	45.5
2335.09	48
2336.02	47.5
2336.96	48
2337.89	46
2338.83	44
2339.76	41
2340.69	47
2341.63	44.5
2342.56	44
2343.49	43.5
2344.42	47.5
2345.36	47.5
2346.29	49.5
2347.22	42.5
2348.15	43.5
2349.09	45
2350.02	43.5
2350.95	47
2351.88	48
2352.81	44.5
2353.74	43
2354.68	45.5
2355.61	46
2356.54	46.5
2357.47	47
2358.4	40
2359.33	45.5
2360.26	42.5
2361.19	48
2362.12	48.5
2363.05	44.5
2363.98	45
2364.91	48.5
2365.84	47
2366.77	50
2367.7	42.5
2368.63	49
2369.56	41.5
2370.49	44.5
2371.41	52.5
2372.34	46
2373.27	44
2374.2	49.5
2375.13	49.5
2376.06	47
2376.98	49
2377.91	44
2378.84	48
2379.77	49.5
2380.69	43.5
2381.62	48.5
2382.55	48.5
2383.47	42
2384.4	48.5
2385.33	47.5
2386.25	45
2387.18	43
2388.11	44
2389.03	43
2389.96	44
2390.89	47
2391.81	47.5
2392.74	46
2393.66	45
2394.59	46
2395.51	49
2396.44	42
2397.36	44
2398.29	47
2399.21	41.5
2400.14	41.5
2401.06	48
2401.99	41
2402.91	44.5
2403.83	36.5
2404.76	47
2405.68	44.5
2406.6	41
2407.53	39.5
2408.45	46
2409.37	47
2410.3	46
2411.22	46.5
2412.14	47.5
2413.06	43
2413.99	48.5
2414.91	43
2415.83	47.5
2416.75	45
2417.68	45.5
2418.6	43
2419.52	45.5
2420.44	46.5
2421.36	45.5
2422.28	42
2423.2	43
2424.12	42
2425.05	43
2425.97	44
2426.89	45
2427.81	43.5
2428.73	46
2429.65	46
2430.57	49
2431.49	43
2432.41	43.5
2433.33	42.5
2434.25	42.5
2435.17	40
2436.08	45
2437	45
2437.92	44
2438.84	48.5
2439.76	47
2440.68	45
2441.6	39
2442.51	44
2443.43	46
2444.35	42
2445.27	42.5
2446.19	48
2447.1	44
2448.02	42
2448.94	41
2449.85	48
2450.77	44.5
2451.69	47
2452.61	40
2453.52	41.5
2454.44	39
2455.35	46
2456.27	44
2457.19	41
2458.1	37
2459.02	44
2459.94	45.5
2460.85	44.5
2461.77	42
2462.68	45.5
2463.6	43.5
2464.51	42.5
2465.43	43.5
2466.34	46
2467.25	44.5
2468.17	51.5
2469.08	46.5
2470	40
2470.91	43.5
2471.83	45
2472.74	42.5
2473.65	40.5
2474.57	44.5
2475.48	47
2476.39	42.5
2477.31	40.5
2478.22	43
2479.13	44.5
2480.04	44.5
2480.96	47
2481.87	45
2482.78	43
2483.69	47
2484.6	46.5
2485.52	38
2486.43	46.5
2487.34	45
2488.25	41.5
2489.16	46
2490.07	43
2490.99	47
2491.9	47
2492.81	45
2493.72	47.5
2494.63	47
2495.54	48
2496.45	51
2497.36	50
2498.27	45.5
2499.18	46
2500.09	44
2501	53
2501.91	46.5
2502.82	48.5
2503.73	47
2504.63	45.5
2505.54	44.5
2506.45	53
2507.36	46
2508.27	50
2509.18	41.5
2510.09	44.5
2510.99	45.5
2511.9	44
2512.81	44.5
2513.72	42.5
2514.62	41
2515.53	41
2516.44	46.5
2517.35	45
2518.25	46
2519.16	42
2520.07	39.5
2520.97	49.5
2521.88	50.5
2522.79	44
2523.69	38.5
2524.6	45.5
2525.51	39.5
2526.41	41.5
2527.32	46
2528.22	44.5
2529.13	48.5
2530.03	50
2530.94	45.5
2531.84	45
2532.75	45.5
2533.65	44.5
2534.56	37.5
2535.46	43
2536.37	42
2537.27	47.5
2538.17	45.5
2539.08	46.5
2539.98	46.5
2540.89	43.5
2541.79	42.5
2542.69	47
2543.6	38.5
2544.5	40.5
2545.4	39
2546.31	47.5
2547.21	43
2548.11	43
2549.01	45
2549.92	40
2550.82	43
2551.72	42
2552.62	47
2553.52	40.5
2554.42	39
2555.33	42.5
2556.23	39.5
2557.13	43.5
2558.03	41.5
2558.93	45
2559.83	43
2560.73	43.5
2561.63	40.5
2562.53	49
2563.43	47.5
2564.33	46
2565.24	43.5
2566.13	37
2567.04	42.5
2567.93	40.5
2568.83	48.5
2569.73	44
2570.63	44.5
2571.53	47
2572.43	41.5
2573.33	42
2574.23	43
2575.13	45
2576.03	40.5
2576.92	40
2577.82	43.5
2578.72	39
2579.62	40
2580.52	41
2581.41	42.5
2582.31	38
2583.21	43.5
2584.11	41
2585	48
2585.9	41
2586.8	41
2587.69	43
2588.59	44
2589.49	42
2590.38	42.5
2591.28	41.5
2592.18	43
2593.07	45.5
2593.97	44
2594.86	38.5
2595.76	46.5
2596.66	40
2597.55	45
2598.45	44
2599.34	43
2600.24	44
2601.13	48
2602.03	43
2602.92	49.5
2603.81	42
2604.71	42.5
2605.6	41.5
2606.5	39.5
2607.39	43.5
2608.28	44.5
2609.18	42
2610.07	38
2610.97	46.5
2611.86	42
2612.75	39.5
2613.64	44
2614.54	43
2615.43	41.5
2616.32	44.5
2617.22	43.5
2618.11	43.5
2619	40.5
2619.89	39
2620.78	42
2621.68	43.5
2622.57	36
2623.46	44
2624.35	41
2625.24	38.5
2626.13	45.5
2627.02	42
2627.91	41.5
2628.81	37
2629.7	38
2630.59	41.5
2631.48	41.5
2632.37	42
2633.26	40
2634.15	41.5
2635.04	44.5
2635.93	40
2636.82	45.5
2637.71	41
2638.59	40
2639.48	37
2640.37	44.5
2641.26	38.5
2642.15	42.5
2643.04	43.5
2643.93	44.5
2644.82	42
2645.71	37
2646.59	42
2647.48	47.5
2648.37	41
2649.26	37.5
2650.15	41
2651.03	40
2651.92	37
2652.81	40.5
2653.69	41.5
2654.58	43.5
2655.47	46
2656.35	41.5
2657.24	44
2658.13	43.5
2659.01	41
2659.9	40.5
2660.79	37
2661.67	40.5
2662.56	41.5
2663.44	48
2664.33	41.5
2665.22	49.5
2666.1	38
2666.99	45
2667.87	45
2668.76	43.5
2669.64	39
2670.52	38
2671.41	41
2672.29	45.5
2673.18	42
2674.06	40.5
2674.95	41.5
2675.83	38.5
2676.71	40.5
2677.6	39
2678.48	40
2679.36	43
2680.25	48
2681.13	41.5
2682.01	45.5
2682.9	41.5
2683.78	43
2684.66	42
2685.55	43
2686.43	42
2687.31	39
2688.19	43
2689.07	40
2689.96	43.5
2690.84	42.5
2691.72	39
2692.6	42
2693.48	40.5
2694.36	38.5
2695.24	39
2696.12	46
2697	42
2697.89	43
2698.77	44.5
2699.65	42.5
2700.53	41
2701.41	45
2702.29	39
2703.17	42.5
2704.05	42
2704.93	42.5
2705.81	39.5
2706.69	41.5
2707.57	40
2708.44	37
2709.32	40.5
2710.2	41.5
2711.08	39.5
2711.96	42.5
2712.84	38.5
2713.72	39.5
2714.59	42
2715.47	39.5
2716.35	43
2717.23	43.5
2718.11	38.5
2718.98	41
2719.86	43
2720.74	39.5
2721.62	43
2722.49	39
2723.37	42
2724.25	35.5
2725.12	46
2726	41
2726.88	46.5
2727.75	43
2728.63	39.5
2729.51	43
2730.38	42
2731.26	42
2732.13	38
2733.01	43.5
2733.88	48.5
2734.76	42
2735.63	40
2736.51	37
2737.38	43.5
2738.26	43
2739.13	37
2740.01	38.5
2740.88	41
2741.76	43
2742.63	43
2743.5	41
2744.38	44.5
2745.25	42.5
2746.13	41
2747	40.5
2747.87	36.5
2748.75	40.5
2749.62	41
2750.49	41
2751.36	44
2752.24	40.5
2753.11	41
2753.98	38
2754.86	42
2755.73	43
2756.6	43.5
2757.47	45.5
2758.34	43
2759.22	44.5
2760.09	42
2760.96	41
2761.83	44
2762.7	43.5
2763.57	39
2764.44	45
2765.31	43
2766.18	40
2767.06	46.5
2767.93	42.5
2768.8	45.5
2769.67	45.5
2770.54	43.5
2771.41	44
2772.28	45
2773.15	46
2774.02	46.5
2774.89	45
2775.75	46.5
2776.62	48.5
2777.49	44.5
2778.36	50.5
2779.23	45.5
2780.1	48.5
2780.97	47.5
2781.84	51
2782.71	50.5
2783.57	54
2784.44	53.5
2785.31	55
2786.18	45
2787.04	54
2787.91	57
2788.78	53.5
2789.65	54
2790.51	55
2791.38	56.5
2792.25	55.5
2793.12	57
2793.98	60
2794.85	58
2795.72	59
2796.58	63
2797.45	57
2798.31	63
2799.18	54.5
2800.05	63
2800.91	61.25
2801.78	59
2802.64	64
2803.51	63
2804.37	64
2805.24	61
2806.1	62
2806.97	60
2807.83	62.5
2808.7	59.5
2809.56	63
2810.43	62.5
2811.29	61
2812.15	60.5
2813.02	60
2813.88	61.5
2814.75	55
2815.61	58
2816.47	56
2817.34	60
2818.2	63
2819.06	56
2819.92	54
2820.79	62.5
2821.65	60
2822.51	63.5
2823.37	57
2824.24	56.5
2825.1	54
2825.96	58.5
2826.82	60
2827.69	59
2828.55	58
2829.41	59.5
2830.27	58.5
2831.13	56
2831.99	56
2832.85	53.5
2833.71	62
2834.58	56
2835.44	61
2836.3	61
2837.16	58.5
2838.02	61
2838.88	63.5
2839.74	61.5
2840.6	57
2841.46	65.5
2842.32	62
2843.18	59
2844.04	61
2844.9	58
2845.75	59
2846.61	61
2847.47	61
2848.33	65.5
2849.19	60.5
2850.05	65
2850.91	59.5
2851.77	59.5
2852.62	56.5
2853.48	61
2854.34	60.5
2855.2	61.5
2856.06	63.5
2856.91	62
2857.77	63.5
2858.63	64.5
2859.48	65.5
2860.34	62.5
2861.2	67
2862.06	73.5
2862.91	63
2863.77	76.5
2864.63	73.5
2865.48	69.5
2866.34	72.5
2867.19	69.5
2868.05	78.5
2868.91	79
2869.76	83
2870.62	82
2871.47	92.5
2872.33	90
2873.18	89
2874.04	91
2874.89	89
2875.75	97.5
2876.6	94.5
2877.46	96.5
2878.31	107.5
2879.17	106.5
2880.02	120.5
2880.88	119
2881.73	131
2882.58	131
2883.44	130.5
2884.29	139
2885.14	141
2886	148.5
2886.85	150
2887.7	157.5
2888.56	172
2889.41	175
2890.26	184.5
2891.12	199
2891.97	198.5
2892.82	229.5
2893.67	234
2894.52	253.5
2895.38	267.5
2896.23	280.5
2897.08	299
2897.93	333.5
2898.78	344.5
2899.64	380.5
2900.49	390
2901.34	424
2902.19	453.5
2903.04	467
2903.89	485
2904.74	509
2905.59	518.5
2906.44	513
2907.29	521.5
2908.14	508
2908.99	487
2909.84	470
2910.69	449.5
2911.54	428.5
2912.39	389.5
2913.24	380.5
2914.09	337.5
2914.94	319
2915.79	281.5
2916.64	258
2917.49	236
2918.34	220
2919.18	211
2920.03	189
2920.88	176.5
2921.73	169
2922.58	158.5
2923.42	152
2924.27	130
2925.12	136
2925.97	129.5
2926.82	118.5
2927.66	121.5
2928.51	117
2929.36	100.5
2930.2	108
2931.05	94
2931.9	97.5
2932.74	92
2933.59	89
2934.44	92.5
2935.28	95.5
2936.13	96
2936.98	89
2937.82	90
2938.67	83
2939.51	86.5
2940.36	83
2941.2	81.5
2942.05	79.5
2942.9	89.5
2943.74	89
2944.58	92
2945.43	92.5
2946.27	82
2947.12	96.5
2947.96	97
2948.81	97.5
2949.65	99
2950.5	103.5
2951.34	104
2952.18	111.5
2953.03	120
2953.87	120
2954.71	128
2955.56	133.5
2956.4	146.5
2957.24	154.5
2958.09	166.5
2958.93	168.5
2959.77	191
2960.62	197
2961.46	206
2962.3	221
2963.14	234.5
2963.98	238.5
2964.83	240.5
2965.67	241
2966.51	243.5
2967.35	229.5
2968.19	235.5
2969.04	223
2969.88	220.5
2970.72	208.5
2971.56	193.951
2972.4	186.734
2973.24	177.129
2974.08	166.054
2974.92	156.641
2975.76	155.08
2976.6	142.451
2977.44	135.037
2978.28	128.99
2979.12	116.96
2979.96	113.58
2980.8	106.649
2981.64	107.91
2982.48	100.164
2983.32	95.3103
2984.16	93.8793
2985	90.2033
2985.84	82.7514
2986.68	82.2869
2987.52	79.3107
2988.35	79.8539
2989.19	76.5442
2990.03	68.281
2990.87	73.0926
2991.71	69.0085
2992.55	65.7315
2993.38	59.1291
2994.22	59.517
2995.06	66.1467
2995.9	60.1582
2996.73	54.2065
2997.57	57.4989
2998.41	57.0189
2999.25	58.6233
3000.08	59.318
3000.92	54.0886
3001.76	54.7303
3002.59	50.7052
3003.43	49.6756
3004.27	53.1416
3005.1	52.5455
3005.94	48.7926
3006.78	47.755
3007.61	51.4407
3008.45	51.0716
3009.28	50.8554
3010.12	48.6319
3010.95	45.0297
3011.79	47.6352
3012.62	48.8934
3013.46	44.3298
3014.29	46.228
3015.13	46.4305
3015.96	45.0772
3016.8	44.8432
3017.63	44.67
3018.47	45.0977
3019.3	42.086
3020.14	44.8639
3020.97	41.5095
3021.8	41.1486
3022.64	44.1581
3023.47	42.8326
3024.3	41.6863
3025.14	41.7606
3025.97	42.3355
3026.8	42.0694
3027.64	39.6933
3028.47	40.7351
3029.3	41.5945
3030.14	39.6845
3030.97	42.1513
3031.8	40.5598
3032.63	39.874
3033.46	40.7943
3034.3	39.631
3035.13	42.4567
3035.96	42.5
3036.79	40.7241
3037.62	40.8834
3038.46	39.4276
3039.29	36.2592
3040.12	37.5446
3040.95	39.253
3041.78	39.5788
3042.61	37.4295
3043.44	38.1109
3044.27	39.5211
3045.1	41.6934
3045.93	44.2294
3046.76	40.9946
3047.59	37.6388
3048.42	36.082
3049.25	38.6618
3050.08	35.0723
3050.91	37.9972
3051.74	37.5102
3052.57	38.6373
3053.4	41.216
3054.23	41.8223
3055.06	42.4151
3055.89	41.0953
3056.72	38.9028
3057.32	42.5
3058.15	38
3058.98	43
3059.82	39.5
3060.65	41
3061.48	41
3062.31	37
3063.15	42
3063.98	38.5
3064.81	41.5
3065.64	43
3066.48	43
3067.31	39.5
3068.14	40
3068.97	42
3069.8	40
3070.63	37
3071.47	39
3072.3	39.5
3073.13	40
3073.96	39.5
3074.79	39
3075.62	37.5
3076.45	41
3077.28	40
3078.11	32.5
3078.94	40.5
3079.77	42
3080.6	40.5
3081.43	40
3082.26	42.5
3083.09	40
3083.92	38.5
3084.75	43
3085.58	41.5
3086.41	40
3087.24	42
3088.07	38
3088.9	37.5
3089.73	36
3090.55	40.5
3091.38	36
3092.21	38
3093.04	34
3093.87	43
3094.7	41
3095.52	40
3096.35	39.5
3097.18	37
3098.01	41.5
3098.84	41.5
3099.66	39.5
3100.49	39.5
3101.32	43
3102.14	36
3102.97	42.5
3103.8	40
3104.62	37.5
3105.45	39.5
3106.28	38.5
3107.1	36.5
3107.93	40.5
3108.76	41
3109.58	41
3110.41	45.5
3111.23	37.5
3112.06	45.5
3112.89	37
3113.71	40.5
3114.54	39
3115.36	41
3116.19	41
3117.01	41.5
3117.84	38.5
3118.66	40
3119.49	39
3120.31	39.5
3121.13	39.5
3121.96	41.5
3122.78	46.5
3123.61	38.5
3124.43	39
3125.25	38
3126.08	40.5
3126.9	39
3127.73	38.5
3128.55	39.5
3129.37	42.5
3130.19	39.5
3131.02	44.5
3131.84	36
3132.66	37
3133.49	31.5
3134.31	37.5
3135.13	37.5
3135.95	40.5
3136.78	40
3137.6	38.5
3138.42	40
3139.24	40
3140.06	41
3140.88	37
3141.71	37.5
3142.53	37.5
3143.35	35.5
3144.17	41
3144.99	38
3145.81	33
3146.63	32
3147.45	34.5
3148.27	37
3149.09	38
3149.91	36.5
3150.73	36.5
3151.56	36.5
3152.37	36.5
3153.2	35
3154.01	39.5
3154.83	35
3155.65	43
3156.47	36
3157.29	39.5
3158.11	35
3158.93	36
3159.75	34
3160.57	34
3161.39	39.5
3162.21	37
3163.02	37.5
3163.84	35
3164.66	33
3165.48	36.5
3166.3	28.5
3167.11	29.5
3167.93	36
3168.75	39.5
3169.57	37
3170.39	36.5
3171.2	37.5
3172.02	38.5
3172.84	38.5
3173.65	35
3174.47	30
3175.29	36
3176.1	34.5
3176.92	38
3177.74	40
3178.55	36
3179.37	36.5
3180.19	32.5
3181	32.5
3181.82	31.5
3182.63	33.5
3183.45	35
3184.27	38.5
3185.08	33.5
3185.9	36.5
3186.71	35
3187.53	38.5
3188.34	37
3189.16	38.5
3189.97	36
3190.79	35
3191.6	34
3192.41	37.5
3193.23	37.5
3194.04	36
3194.86	34
3195.67	33
3196.48	36.5
3197.3	30
3198.11	36
3198.93	39
3199.74	38
3200.55	30
3201.36	31.5
3202.18	32
3202.99	36
3203.8	35.5
3204.62	31
3205.43	34
3206.24	34
3207.05	33
3207.87	32.5
3208.68	31
3209.49	32
3210.3	35
3211.11	35.5
3211.93	37
3212.74	36.5
3213.55	29
3214.36	33
3215.17	34
3215.98	36.5
3216.79	32.5
3217.6	36
3218.41	34.5
3219.22	37
3220.03	27
3220.85	34
3221.66	34
3222.47	35
3223.28	33.5
3224.09	34
3224.9	34
3225.71	34
3226.52	33
3227.33	34.5
3228.13	31
3228.94	32.5
3229.75	36
3230.56	34
3231.37	35
3232.18	34.5
3232.99	34.5
3233.8	37
3234.61	34
3235.41	33
3236.22	34
3237.03	36
3237.84	31
3238.65	34
3239.45	31.5
3240.26	33
3241.07	36.5
3241.88	28.5
3242.68	27.5
3243.49	32
3244.3	30.5
3245.1	28
3245.91	36
3246.72	36
3247.53	33
3248.33	33.5
3249.14	34
3249.95	33.5
3250.75	35.5
3251.56	33
3252.36	31
3253.17	35
3253.97	33
3254.78	32
3255.59	32.5
3256.39	30
3257.2	32
3258	34
3258.81	35.5
3259.61	31.5
3260.42	31
3261.22	31
3262.03	29.5
3262.83	33.5
3263.64	36
3264.44	32
3265.24	36
3266.05	34.5
3266.85	33.5
3267.66	32.5
3268.46	35.5
3269.26	31.5
3270.07	32
3270.87	29.5
3271.67	34
3272.48	34
3273.28	33.5
3274.08	30.5
3274.89	31
3275.69	35
3276.49	27
3277.29	32.5
3278.1	36.5
3278.9	30
3279.7	33.5
3280.5	30.5
3281.3	27.5
3282.11	31.5
3282.91	29.5
3283.71	31
3284.51	28
3285.31	34
3286.11	33
3286.91	32
3287.72	33
3288.52	28.5
3289.32	31.5
3290.12	35.5
3290.92	28.5
3291.72	35
3292.52	35
3293.32	27
3294.12	31
3294.92	33
3295.72	29.5
3296.52	32.5
3297.32	36
3298.12	31.5
3298.92	29
3299.72	31.5
3300.52	33.5
3301.32	33
3302.12	37.5
3302.92	33
3303.71	32.5
3304.51	33.5
3305.31	33
3306.11	34.5
3306.91	29.5
3307.71	34.5
3308.5	32
3309.3	33
3310.1	32
3310.9	28
3311.7	33.5
3312.49	32.5
3313.29	36.5
3314.09	32.5
3314.89	35.5
3315.68	34.5
3316.48	33
3317.28	33.5
3318.07	30
3318.87	35.5
3319.67	32.5
3320.46	34.5
3321.26	31
3322.06	33
3322.85	35
3323.65	30.5
3324.44	32
3325.24	29
3326.04	30
3326.83	35
3327.63	31.5
3328.42	32.5
3329.22	28
3330.01	30.5
3330.81	31.5
3331.6	34
3332.4	38.5
3333.19	31
3333.99	31
3334.78	27.5
3335.58	32
3336.37	33
3337.17	31.5
3337.96	33.5
3338.75	32.5
3339.55	33
3340.34	29
3341.13	31.5
3341.93	26
3342.72	33
3343.51	35.5
3344.31	35
3345.1	26.5
3345.89	33.5
3346.69	33
3347.48	32
3348.27	32
3349.06	34.5
3349.86	33
3350.65	29
3351.44	31
3352.23	31.5
3353.03	26.5
3353.82	33.5
3354.61	29
3355.4	35
3356.19	33
3356.98	29.5
3357.78	29.5
3358.57	32.5
3359.36	30.5
3360.15	30.5
3360.94	33
3361.73	27
3362.52	35
3363.31	33.5
3364.1	32.5
3364.89	31
3365.68	33
3366.47	26
3367.26	31
3368.05	30.5
3368.84	34
3369.63	33
3370.42	32
3371.21	33.5
3372	33.5
3372.79	32.5
3373.58	32.5
3374.37	32
3375.16	32
3375.95	35
3376.73	34
3377.52	35.5
3378.31	31.5
3379.1	33
3379.89	33.5
3380.68	33.5
3381.46	27.5
3382.25	29
3383.04	35
3383.83	31
3384.62	28
3385.4	29
3386.19	30
3386.98	32
3387.76	31.5
3388.55	35
3389.34	32.5
3390.13	27
3390.91	33
3391.7	33
3392.49	34
3393.27	33
3394.06	29
3394.84	29
3395.63	30.5
3396.42	28
3397.2	33
3397.99	30
3398.77	32
3399.56	33.5
3400.34	30.5
3401.13	32
3401.92	30.5
3402.7	32.5
3403.49	32.5
3404.27	32.5
3405.06	31
3405.84	31.5
3406.62	30
3407.41	32
3408.19	30.5
3408.98	28
3409.76	31
3410.55	30
3411.33	32
3412.11	33
3412.9	31.5
3413.68	30.5
3414.46	30.5
3415.25	31.5
3416.03	31.5
3416.81	32.5
3417.6	31
3418.38	31.5
3419.16	29
3419.95	31
3420.73	31
3421.51	31
3422.29	29
3423.08	30
3423.86	35
3424.64	31
3425.42	30.5
3426.2	31
3426.98	30
3427.77	28
3428.55	30.5
3429.33	29
3430.11	30.5
3430.89	28
3431.67	33
3432.45	31
3433.24	31
3434.02	28.5
3434.8	31
3435.58	29
3436.36	28.5
3437.14	30.5
3437.92	32.5
3438.7	31
3439.48	31
3440.26	28
3441.04	29
3441.82	29
3442.6	30.5
3443.38	33.5
3444.16	26.5
3444.94	28.5
3445.71	32
3446.49	32
3447.27	29
3448.05	30
3448.83	24.5
3449.61	28.5
3450.39	32
3451.17	30.5
3451.94	28.5
3452.72	28
3453.5	29.5
3454.28	28
3455.06	28
3455.83	32
3456.61	31.5
3457.39	30
3458.17	28
3458.94	29.5
3459.72	28
3460.5	30
3461.28	30
3462.05	25.5
3462.83	31
3463.61	28
3464.38	29
3465.16	30.5
3465.93	30.5
3466.71	30.5
3467.49	34
3468.26	35
3469.04	31.5
3469.82	28.5
3470.59	30
3471.37	29.5
3472.14	26
3472.92	25.5
3473.69	30.5
3474.47	28
3475.24	27
3476.02	30
3476.79	26.5
3477.57	34
3478.34	29
3479.12	32.5
3479.89	34.5
3480.67	29
3481.44	26.5
3482.21	34
3482.99	31
3483.76	29
3484.54	32.5
3485.31	31.5
3486.08	33.5
3486.86	33
3487.63	31.5
3488.4	28
3489.18	30.5
3489.95	32
3490.72	26.5
3491.5	30
3492.27	32.5
3493.04	29.5
3493.81	31
3494.59	32
3495.36	29
3496.13	30
3496.9	33
3497.67	31
3498.45	25
3499.22	34
3499.99	31
