#Acq. time (s)=	5
#Accumulations=	5
#Range (cm-¹)=	100...3500
#Windows=	4
#Autofocus=	Off
#AutoExposure=	Off
#Spike filter=	Multiple accum.
#Delay time (s)=	0
#Binning=	1
#Readout mode=	Signal
#DeNoise=	Off
#ICS correction=	Off
#Dark correction=	Off
#Inst. Process=	Off
#Instrument=	LabRAM HR Evol
#Detector=	Syncerity OE
#Objective=	x100_VIS
#Grating=	600 (500nm)
#ND Filter=	25%
#Laser=	633nm_Edge
#Hole=	100.021
#Range=	Visible
#Project=	verificaciones
#Sample=	a4
#Site=	lined
#Title=	bolusa4lined
#Remark=	
#Date=	09.01.2026 15:26
#Acquired=	09.01.2026 15:26:51
100.695	96.5
101.978	98.5
103.262	90.5
104.545	96
105.829	97.5
107.112	93.5
108.394	96
109.676	95
110.958	107.5
112.24	94.5
113.522	96
114.803	94.5
116.084	105
117.365	104.5
118.646	100
119.927	105
121.207	104.5
122.487	103
123.767	112
125.047	108
126.326	114
127.606	114
128.885	128
130.164	108
131.442	125
132.721	132
133.999	129
135.277	128
136.555	137
137.831	137
139.109	147.5
140.386	146.5
141.663	151
142.94	157.5
144.216	156
145.493	161.5
146.769	165
148.043	179.5
149.319	175.5
150.595	177
151.87	172.5
153.145	186.5
154.42	177
155.693	189.5
156.968	193
158.242	189.5
159.516	185.5
160.79	184
162.062	177
163.336	184
164.609	180.5
165.882	187
167.153	175
168.426	178.5
169.699	169
170.971	180
172.241	166
173.513	179.5
174.785	178.5
176.055	177
177.326	177
178.597	172.5
179.866	178
181.137	188
182.407	179
183.676	186
184.946	189
186.216	189
187.484	188.5
188.753	194
190.022	183
191.29	181
192.558	185
193.825	178
195.094	183
196.36	173
197.628	173
198.896	176
200.162	164
201.429	168.5
202.695	163
203.962	160
205.227	157
206.493	143
207.758	136
209.024	146
210.289	136
211.554	142.5
212.818	137.5
214.083	130
215.347	126
216.612	130.5
217.875	125
219.138	121.5
220.402	113.5
221.665	117
222.928	122.5
224.19	116
225.454	110.5
226.715	120.5
227.977	106
229.24	111.5
230.501	109
231.762	104.5
233.024	101
234.284	103
235.546	103.5
236.806	97
238.066	98
239.327	100.5
240.587	102
241.846	91.5
243.105	103.5
244.365	103
245.624	88.5
246.882	95
248.142	94.5
249.4	89.5
250.658	98
251.916	95.5
253.174	90.5
254.432	98.5
255.689	94
256.945	95.5
258.202	91.5
259.46	91
260.716	92
261.972	94.5
263.228	86
264.483	89
265.74	89
266.996	92
268.251	84
269.505	83.5
270.76	85
272.014	85
273.268	85.5
274.522	77
275.778	82
277.031	76
278.285	81.5
279.538	84
280.791	80.5
282.043	82
283.296	79.5
284.548	86
285.8	79
287.052	78.5
288.304	85.5
289.556	86
290.807	81
292.058	79.5
293.309	86
294.56	85
295.81	80.5
297.061	82
298.311	78.5
299.561	80
300.81	84
302.06	79
303.309	79.5
304.558	76.5
305.807	82.5
307.056	82
308.305	83
309.551	87.5
310.8	83
312.047	80.5
313.295	79
314.543	84.5
315.79	82
317.037	84.5
318.284	83.5
319.529	82
320.776	83
322.022	84
323.268	83
324.514	82
325.758	78
327.004	86.5
328.249	80.5
329.494	83
330.739	85
331.982	89.5
333.227	79.5
334.471	82
335.715	83.5
336.958	75
338.201	83
339.445	82.5
340.687	85
341.93	79
343.173	79
344.414	78.5
345.657	78
346.899	79
348.14	83
349.381	81.5
350.623	83.5
351.863	77.5
353.104	89.5
354.346	84.5
355.585	77.5
356.826	86
358.065	84.5
359.305	81.5
360.545	81
361.784	72
363.023	73
364.261	80
365.501	84
366.738	81
367.977	77.5
369.216	83.5
370.453	84
371.691	79.5
372.928	80
374.166	80
375.402	73.5
376.64	80
377.876	76
379.111	77.5
380.348	76
381.584	75.5
382.82	75
384.055	79
385.291	72.5
386.526	78
387.76	82
388.996	75.5
390.229	80
391.465	78
392.698	73
393.931	77.5
395.166	77.5
396.399	83
397.632	78.5
398.866	75.5
400.098	71
401.33	79.5
402.563	71.5
403.795	74.5
405.027	76
406.259	78.5
407.491	75
408.721	71
409.954	73
411.184	76
412.415	71
413.645	73
414.876	76.5
416.106	75.5
417.335	79
418.565	76
419.794	69
421.024	73.5
422.253	76
423.482	72
424.71	78.5
425.938	75.5
427.168	81
428.396	78
429.623	75.5
430.851	77.5
432.078	76.5
433.305	74.5
434.532	76
435.758	77
436.986	84
438.212	77.5
439.438	87
440.664	80.5
441.89	79
443.115	76.5
444.34	80
445.566	84
446.79	82.5
448.015	82
449.24	81.5
450.464	83.5
451.688	83
452.912	86
454.135	86
455.359	84
456.582	87.5
457.805	83.5
459.028	85.5
460.251	88
461.473	88
462.696	92
463.918	95.5
465.14	108.5
466.36	110.5
467.582	110.5
468.803	114.5
470.024	123.5
471.245	130.5
472.466	127.5
473.686	150
474.907	163
476.126	164
477.346	188.5
478.565	215.5
479.785	221
481.004	250.5
482.224	267.5
483.441	297
484.66	329.5
485.879	337
487.097	337.5
488.314	365
489.532	343.5
490.75	348.5
491.967	337
493.184	315.5
494.401	311.5
495.618	289.5
496.835	264
498.05	254.5
499.267	239.5
500.483	229.5
501.698	208
502.913	199.5
504.129	191.5
505.343	169
506.559	171
507.774	155
508.987	148
510.202	146
511.415	139.5
512.63	135.5
513.844	136.5
515.056	121.5
516.27	113
517.482	113
518.696	116.5
519.907	113
521.121	104.5
522.332	104.5
523.545	95.5
524.757	102
525.968	97
527.18	104
528.39	101.5
529.602	93
530.812	89
532.023	93
533.233	90
534.443	87.5
535.653	91
536.862	92
538.073	88
539.281	83
540.491	85.5
541.7	83
542.908	92
544.117	84
545.325	79
546.534	79.5
547.741	79
548.949	85
550.157	81
551.364	81
552.57	79
553.778	80
554.985	78
556.191	71.5
557.398	83
558.604	81
559.809	76
561.014	81
562.221	77
563.426	79.5
564.63	75.5
565.835	72.5
567.041	81
568.245	73
569.449	76
570.653	75.5
571.856	73.5
573.061	78
574.264	76
575.467	75
576.67	79.5
577.873	74
579.076	76
580.279	72.5
581.481	74.5
582.683	73
583.884	78.5
585.086	77
586.287	78
587.488	75.5
588.689	75.5
589.891	65
591.092	78.5
592.292	71
593.492	70
594.692	76.5
595.892	73.5
597.092	70.5
598.291	73
599.49	72.5
600.689	70
601.888	69
603.087	74.5
604.285	71.5
605.483	70.5
606.681	69.5
607.879	75
609.077	73.5
610.274	74
611.472	74.5
612.668	70
613.865	74.5
615.061	77
616.258	67.5
617.454	71
618.65	75.5
619.846	71
621.042	76.5
622.238	73.5
623.432	80
624.627	79
625.822	75.5
627.017	72.5
628.212	77
629.406	73.5
630.599	76
631.793	77
632.987	80.5
634.181	75.5
635.373	78.5
636.566	77.5
637.76	76.5
638.953	76
640.144	82.5
641.337	79
642.529	79.5
643.721	80.5
644.912	83
646.104	82
647.295	77.5
648.485	78.5
649.677	78.5
650.868	80
652.057	79
653.248	66.5
654.437	75.5
655.628	77
656.818	77
658.006	79
659.196	75
660.384	81
661.574	76
662.763	84.5
663.951	86
665.14	85.5
666.327	87
667.515	78
668.702	79.5
669.891	88.5
671.077	82
672.265	92
673.451	84.5
674.638	89.5
675.824	96.5
677.011	99.5
678.197	103
679.383	106.5
680.568	109.5
681.755	118
682.939	125
684.124	119.5
685.309	126.5
686.494	136
687.679	135.5
688.863	129
690.046	123.5
691.231	127.5
692.414	127
693.599	124.5
694.781	126
695.964	127
697.148	132
698.33	137
699.512	136.5
700.694	150.5
701.877	163
703.059	182.5
704.24	204
705.423	217.5
706.604	244.5
707.784	260.5
708.965	278
710.147	273.5
711.327	245
712.507	213
713.687	178
714.867	160
716.048	138
717.227	121
718.406	105
719.585	106
720.764	102.5
721.942	98
723.122	92.5
724.3	94
725.478	85
726.656	83
727.834	86
729.011	79
730.189	81.5
731.366	82
732.543	77
733.719	75.5
734.896	77.5
736.072	74
737.249	74
738.426	73.5
739.602	72.5
740.777	74
741.953	68
743.128	79
744.303	69
745.477	73.5
746.651	77
747.826	73.5
749	74
750.174	74
751.348	72
752.522	83
753.696	75.5
754.869	69
756.043	79
757.216	72.5
758.389	72
759.561	73.5
760.732	69.5
761.905	71
763.077	63.5
764.249	72.5
765.421	75
766.592	71
767.762	70.5
768.934	76
770.105	66.5
771.275	74
772.446	77.5
773.615	75
774.786	78
775.956	75.5
777.126	83
778.294	80.5
779.464	77
780.633	83.5
781.801	83
782.97	97.5
784.139	94.5
785.306	103
786.475	106
787.643	102.5
788.81	106.5
789.978	97
791.146	99
792.312	98
793.479	98
794.647	92
795.812	94.5
796.979	83.5
798.144	89
799.311	93
800.477	86
801.642	80
802.808	82.5
803.972	79.5
805.138	82.5
806.302	81
807.467	80
808.631	75
809.796	73
810.959	78
812.124	74
813.287	76
814.451	76
815.614	76
816.777	73.5
817.94	67.5
819.102	75
820.265	72.5
821.427	68
822.59	77
823.751	67
824.912	67
826.074	72
827.235	69
828.397	73.5
829.558	64
830.718	70
831.879	64
833.039	71.5
834.199	70
835.359	64
836.519	73
837.679	69
838.838	71.5
839.998	66
841.156	76.5
842.315	73
843.473	69.5
844.633	72
845.791	69.5
846.948	73.5
848.106	74.5
849.263	72
850.422	75
851.579	73
852.736	73.5
853.892	78.5
855.049	78
856.205	82
857.363	77
858.519	77.5
859.674	91
860.83	81.5
861.986	83.5
863.141	87.5
864.296	81.5
865.451	79
866.605	76.5
867.76	79
868.914	78.5
870.069	76.5
871.224	77
872.378	73.5
873.531	74
874.685	74
875.838	80
876.991	73
878.144	82
879.296	77
880.448	69.5
881.6	76
882.753	71.5
883.905	71.5
885.057	72
886.208	73
887.36	70.5
888.511	66
889.662	67.5
890.813	74
891.964	63
893.113	66
894.264	70
895.414	72
896.564	69.5
897.714	68
898.864	64
900.012	70.5
901.161	64
902.31	68.5
903.459	71.5
904.607	66
905.756	66.5
906.904	63
908.052	61
909.199	64.5
910.347	61.5
911.495	54
912.643	63
913.789	62.5
914.936	67.5
916.083	65.5
917.229	67
918.375	62.5
919.522	63.5
920.667	65
921.813	53.5
922.959	63.5
924.104	63
925.249	62
926.393	70
927.539	65.5
928.684	64
929.827	64.5
930.972	64.5
932.115	68
933.26	60.5
934.403	65.5
935.547	69
936.689	62
937.833	59
938.975	69.5
940.119	63.5
941.26	60.5
942.404	61.5
943.545	65.5
944.688	68.5
945.829	64.5
946.971	61
948.112	62.5
949.253	59
950.394	61
951.535	65.5
952.676	61
953.816	56
954.956	67.5
956.097	63.5
957.236	68
958.377	73
959.516	69.5
960.655	66
961.793	58
962.933	64.5
964.071	56
965.21	60
966.349	67
967.487	60
968.624	64.5
969.762	69
970.901	65.5
972.038	62
973.175	60.5
974.311	64
975.449	60
976.586	63.5
977.722	60.5
978.858	65
979.994	61
981.131	63.5
982.267	69
983.402	69
984.537	60.5
985.672	66
986.807	62
987.942	61
989.076	57
990.211	60
991.346	62
992.48	66
993.614	58
994.748	66.5
995.881	60.5
997.014	65.5
998.148	63.5
999.28	62
1000.41	63
1001.55	59
1002.68	66
1003.81	56.5
1004.94	66
1006.07	61
1007.21	61
1008.34	63
1009.47	64
1010.6	61.5
1011.73	64
1012.86	64.5
1013.99	64.5
1015.12	58
1016.25	61
1017.38	56
1018.51	64
1019.64	66.5
1020.77	61.5
1021.9	66.5
1023.03	64
1024.16	65.5
1025.29	60.5
1026.42	61
1027.54	60.5
1028.67	64
1029.8	61.5
1030.93	62.5
1032.06	60
1033.18	64.5
1034.31	68
1035.44	61
1036.56	66.5
1037.69	58.5
1038.82	65
1039.94	55
1041.07	65
1042.2	57.5
1043.32	61
1044.45	63
1045.57	67.5
1046.7	65
1047.82	65
1048.95	65.5
1050.07	65
1051.2	57
1052.32	60.5
1053.45	63
1054.57	60.5
1055.69	63.5
1056.82	64
1057.94	62
1059.06	65
1060.19	68.5
1061.31	63.5
1062.43	56.5
1063.55	61
1064.68	59
1065.8	62
1066.92	62.5
1068.04	62
1069.16	65.5
1070.28	62.5
1071.41	60.5
1072.53	61
1073.65	61
1074.77	66
1075.89	61
1077.01	57
1078.13	64.5
1079.25	59
1080.37	64.5
1081.49	62
1082.61	62
1083.73	58
1084.85	58
1085.96	59
1087.08	59.5
1088.2	58.5
1089.32	62
1090.44	60.5
1091.56	63
1092.67	61.5
1093.79	63.5
1094.91	67.5
1096.03	61.5
1097.14	61
1098.26	62
1099.38	59
1100.49	59.5
1101.61	63
1102.73	62
1103.84	58
1104.96	57.5
1106.07	61.5
1107.19	63.5
1108.3	59.5
1109.42	56
1110.53	60.5
1111.65	64
1112.76	56
1113.88	63
1114.99	61
1116.1	67
1117.22	64
1118.33	56.5
1119.44	60
1120.56	57
1121.67	59
1122.78	61
1123.9	54
1125.01	57
1126.12	59
1127.23	62
1128.34	59
1129.46	55
1130.57	61.5
1131.68	59.5
1132.79	57
1133.9	55
1135.01	63
1136.12	58
1137.23	60
1138.34	63
1139.45	63.5
1140.56	61
1141.67	60
1142.78	61
1143.89	58
1145	65
1146.11	62
1147.22	59.5
1148.33	59.5
1149.44	59
1150.54	65
1151.65	56.5
1152.76	56
1153.87	56.5
1154.97	57
1156.08	66
1157.19	61
1158.3	59.5
1159.4	59.5
1160.51	62.5
1161.62	60
1162.72	61.5
1163.83	64.5
1164.93	65.5
1166.04	59
1167.15	62
1168.25	66
1169.36	60.5
1170.46	63
1171.57	58.5
1172.67	59
1173.78	56
1174.88	62
1175.98	60.5
1177.09	55
1178.19	56.5
1179.3	61.5
1180.4	59.5
1181.5	58.5
1182.61	54
1183.71	60
1184.81	61.5
1185.91	61
1187.02	57.5
1188.12	61
1189.22	60
1190.32	64.5
1191.42	62.5
1192.53	60
1193.63	59.5
1194.73	57.4897
1195.83	54.4624
1196.93	59.9716
1198.03	59.0413
1199.13	60.9907
1200.23	58.1013
1201.33	57.1322
1202.43	63.0847
1203.53	61.2858
1204.63	64.4955
1205.73	56.75
1206.83	57.0658
1207.93	59.3028
1209.02	58.1427
1210.12	59.3071
1211.22	61.7561
1212.32	56.7579
1213.42	61.7842
1214.52	57.7451
1215.61	57.4582
1216.71	60.7985
1217.81	59.9264
1218.91	58.8635
1220	59.3885
1221.1	54.5169
1222.2	57.2207
1223.29	59.3767
1224.39	57.3455
1225.49	59.1869
1226.58	61.4498
1227.68	63.0558
1228.77	55.6516
1229.87	58.7335
1230.96	59.9881
1232.06	61.8277
1233.15	62.1429
1234.25	60.5205
1235.34	61.211
1236.44	58.2312
1237.53	61.791
1238.63	62.1161
1239.72	60.43
1240.81	59.6809
1241.91	62.1423
1243	59.1437
1244.09	57.8252
1245.19	61.4247
1246.28	60.2333
1247.37	63.3522
1248.46	62.7783
1249.56	65.4598
1250.65	61.0318
1251.74	64.221
1252.83	67.037
1253.92	65.7162
1255.01	68.2614
1256.11	73.6853
1257.2	74.0243
1258.29	69.5692
1259.38	73.4104
1260.47	75.2046
1261.56	77.5452
1262.65	72.7375
1263.74	76.5565
1264.83	76.0026
1265.92	73.024
1267.01	73.2137
1268.1	69.3661
1269.19	61.4078
1270.27	65.6075
1271.36	64.3012
1272.45	59.2258
1273.54	56.9884
1274.63	54.7217
1275.72	61.3179
1276.8	59.9264
1277.89	60.8352
1278.98	60.4521
1280.07	59.4357
1281.15	57.9418
1282.24	57.8889
1283.33	62.2307
1284.41	61.9325
1285.5	58.2953
1286.59	59.3738
1287.67	54.4885
1288.76	59.0742
1289.84	59.8068
1290.93	56.0375
1292.01	58.3229
1293.1	60.6085
1294.19	59.629
1295.27	58.7381
1296.35	58.5461
1297.44	56.9562
1298.52	59.5015
1299.61	60.3628
1300.69	57.8283
1301.78	60.0479
1302.86	56.4372
1303.94	60.1814
1305.03	55.6902
1306.11	58.2833
1306.4	60
1307.49	56.5
1308.57	66
1309.66	56.5
1310.75	61
1311.84	58.5
1312.92	57
1314.01	62.5
1315.1	58.5
1316.19	58
1317.27	56.5
1318.36	61
1319.45	58.5
1320.53	59
1321.62	56
1322.7	59
1323.79	56
1324.88	58
1325.96	62.5
1327.05	59
1328.13	60
1329.21	56
1330.3	56
1331.38	60
1332.47	59.5
1333.55	62
1334.64	54
1335.72	56.5
1336.8	59
1337.89	58
1338.97	59.5
1340.05	60
1341.14	60.5
1342.22	55.5
1343.3	64.5
1344.39	60.5
1345.47	64
1346.55	60
1347.63	58.5
1348.71	57
1349.79	54.5
1350.88	57.5
1351.96	54
1353.04	51
1354.12	61
1355.2	57
1356.28	60.5
1357.36	60
1358.44	60.5
1359.52	60
1360.6	55
1361.68	63.5
1362.76	57.5
1363.84	57.5
1364.92	52.5
1366	62.5
1367.08	64
1368.16	58
1369.23	58
1370.31	60.5
1371.39	60
1372.47	62.5
1373.55	62
1374.62	63.5
1375.7	62
1376.78	61
1377.85	63
1378.93	63.5
1380.01	64
1381.09	59.5
1382.16	65
1383.24	65.5
1384.31	64
1385.39	67.5
1386.47	67.5
1387.54	65.5
1388.62	59
1389.69	65
1390.77	67.5
1391.84	72
1392.92	70
1393.99	72.5
1395.06	75.5
1396.14	77
1397.21	75.5
1398.29	82
1399.36	84
1400.43	80.5
1401.51	90
1402.58	96.5
1403.65	94.5
1404.73	95
1405.8	100.5
1406.87	94.5
1407.94	101.5
1409.02	104
1410.09	108
1411.16	106.5
1412.23	105
1413.3	110
1414.37	101
1415.45	92
1416.52	104.5
1417.59	92
1418.66	95
1419.73	84.5
1420.8	84
1421.87	86.5
1422.94	78
1424.01	79.5
1425.08	76.5
1426.15	74.5
1427.22	71.5
1428.29	72
1429.35	76.5
1430.42	70.5
1431.49	71
1432.56	63.5
1433.63	63.5
1434.7	67
1435.77	68
1436.83	63
1437.9	71.5
1438.97	65.5
1440.04	65.5
1441.1	62.5
1442.17	64.5
1443.24	63.5
1444.3	67
1445.37	66
1446.44	66.5
1447.5	68
1448.57	63.5
1449.63	61.5
1450.7	63
1451.76	62
1452.83	59.5
1453.89	65.5
1454.96	58.5
1456.02	63
1457.09	67
1458.15	66
1459.22	56
1460.28	63.5
1461.34	63.5
1462.41	64.5
1463.47	63
1464.54	61
1465.6	57.5
1466.66	61.5
1467.72	55
1468.79	60
1469.85	57
1470.91	64.5
1471.97	62
1473.04	66
1474.1	59
1475.16	65.5
1476.22	59
1477.28	58
1478.34	61
1479.4	63
1480.47	60.5
1481.53	67
1482.59	58
1483.65	61
1484.71	63.5
1485.77	59
1486.83	62.5
1487.89	63
1488.95	64
1490.01	56
1491.07	61
1492.12	63
1493.18	68
1494.24	62
1495.3	65.5
1496.36	62.5
1497.42	62.5
1498.47	62
1499.53	63
1500.59	65.5
1501.65	64.5
1502.7	59
1503.76	56.5
1504.82	54
1505.88	58
1506.93	59
1507.99	59
1509.05	65
1510.1	59
1511.16	57.5
1512.21	61
1513.27	60.5
1514.32	61
1515.38	58.5
1516.43	56
1517.49	55
1518.54	59
1519.6	54.5
1520.65	55
1521.71	58
1522.76	53
1523.82	57.5
1524.87	59.5
1525.92	61
1526.98	57
1528.03	56
1529.08	57
1530.14	58
1531.19	58
1532.24	66
1533.3	57
1534.35	58.5
1535.4	58.5
1536.45	54
1537.5	66.5
1538.56	65.5
1539.61	56
1540.66	60.5
1541.71	58
1542.76	60
1543.81	61.5
1544.86	54
1545.91	61.5
1546.96	57.5
1548.01	56.5
1549.06	61
1550.11	57
1551.16	57
1552.21	58.5
1553.26	59.5
1554.31	57.5
1555.36	58.5
1556.41	62
1557.46	62
1558.51	60
1559.55	57.5
1560.6	54
1561.65	61.5
1562.7	58.5
1563.75	57
1564.79	58
1565.84	61
1566.89	57.5
1567.94	59
1568.98	54
1570.03	54.5
1571.07	65
1572.12	59.5
1573.17	54.5
1574.21	50
1575.26	60
1576.31	53
1577.35	54.5
1578.4	54
1579.44	57
1580.49	59.5
1581.53	58
1582.58	55
1583.62	54
1584.67	54.5
1585.71	53.5
1586.75	54
1587.8	58.5
1588.84	56.5
1589.89	56
1590.93	55.5
1591.97	56
1593.02	56.5
1594.06	57
1595.1	54.5
1596.14	54.5
1597.19	59
1598.23	61
1599.27	62
1600.31	58.5
1601.35	51
1602.4	54.5
1603.44	57
1604.48	55
1605.52	57.5
1606.56	49.5
1607.6	53
1608.64	58.5
1609.68	50
1610.72	56
1611.76	54
1612.8	55.5
1613.84	55
1614.88	55
1615.92	50
1616.96	55
1618	56.5
1619.04	57
1620.08	55.5
1621.12	52
1622.16	57.5
1623.19	54.5
1624.23	55
1625.27	52.5
1626.31	57
1627.35	54
1628.38	53
1629.42	56.5
1630.46	58
1631.5	59
1632.53	48.5
1633.57	56
1634.61	56.5
1635.64	59
1636.68	56
1637.71	57.5
1638.75	50.5
1639.79	55.5
1640.82	53.5
1641.86	54
1642.89	55.5
1643.93	53.5
1644.96	55.5
1646	61
1647.03	56.5
1648.07	54.5
1649.1	54
1650.14	55
1651.17	57
1652.2	52.5
1653.24	53
1654.27	58
1655.3	52
1656.34	53.5
1657.37	55
1658.4	53.5
1659.44	49.5
1660.47	56
1661.5	53
1662.53	50
1663.57	51
1664.6	47
1665.63	55.5
1666.66	56.5
1667.69	53.5
1668.72	51
1669.75	52.5
1670.79	51.5
1671.82	54
1672.85	51
1673.88	50
1674.91	55
1675.94	50
1676.97	54
1678	47
1679.03	53.5
1680.06	51
1681.09	56.5
1682.11	54
1683.14	47
1684.17	51
1685.2	51
1686.23	51.5
1687.26	50.5
1688.29	48
1689.32	52
1690.34	49
1691.37	49
1692.4	58
1693.43	52
1694.45	55
1695.48	49
1696.51	50
1697.53	49.5
1698.56	55.5
1699.59	55.5
1700.61	51
1701.64	53.5
1702.66	54
1703.69	56.5
1704.72	49.5
1705.74	47
1706.77	52.5
1707.79	55.5
1708.82	50.5
1709.84	49
1710.87	51.5
1711.89	50
1712.92	50
1713.94	47
1714.96	53.5
1715.99	47
1717.01	54.5
1718.04	51
1719.06	53.5
1720.08	49.5
1721.11	48.5
1722.13	49.5
1723.15	48
1724.17	50
1725.2	54
1726.22	51
1727.24	50.5
1728.26	49
1729.28	49.5
1730.31	49
1731.33	51.5
1732.35	51.5
1733.37	51
1734.39	55.5
1735.41	47.5
1736.43	53.5
1737.45	55.5
1738.47	53
1739.49	49
1740.51	53.5
1741.53	47.5
1742.55	49.5
1743.57	53
1744.59	54
1745.61	54.5
1746.63	50.5
1747.65	51
1748.67	47.5
1749.69	51
1750.71	50.5
1751.72	47.5
1752.74	50.5
1753.76	49.5
1754.78	49.5
1755.8	51
1756.81	55.5
1757.83	53.5
1758.85	49.5
1759.86	50.5
1760.88	48.5
1761.9	51.5
1762.91	49.5
1763.93	53.5
1764.95	51
1765.96	45.5
1766.98	51
1768	53
1769.01	51
1770.03	52.5
1771.04	53.5
1772.06	44
1773.07	50.5
1774.09	48
1775.1	47
1776.12	47
1777.13	49
1778.14	51.5
1779.16	48
1780.17	45
1781.19	51.5
1782.2	45.5
1783.21	47
1784.23	49
1785.24	41.5
1786.25	52
1787.27	53.5
1788.28	53
1789.29	54.5
1790.3	54
1791.32	48.5
1792.33	47
1793.34	45
1794.35	47
1795.36	50.5
1796.37	48
1797.38	49.5
1798.4	51
1799.41	46
1800.42	50.5
1801.43	49.5
1802.44	52
1803.45	50.5
1804.46	53
1805.47	46.5
1806.48	50.5
1807.49	55.5
1808.5	52
1809.51	49.5
1810.52	51.5
1811.53	48.5
1812.53	48
1813.54	50
1814.55	55
1815.56	44.5
1816.57	50
1817.58	50
1818.58	49
1819.59	48
1820.6	50.5
1821.61	51
1822.61	47
1823.62	50
1824.63	52.5
1825.64	49
1826.64	52
1827.65	48
1828.66	49.5
1829.66	47
1830.67	45.5
1831.67	47.5
1832.68	46.5
1833.68	48.5
1834.69	53
1835.7	49
1836.7	49
1837.71	45
1838.71	49.5
1839.71	51.5
1840.72	48
1841.72	47.5
1842.73	52.5
1843.73	48
1844.74	48.5
1845.74	48.5
1846.74	45
1847.75	49.5
1848.75	48.5
1849.75	44
1850.76	48.5
1851.76	46.5
1852.76	47.5
1853.76	49
1854.77	47
1855.77	51
1856.77	48
1857.77	42.5
1858.77	48
1859.78	50
1860.78	45.5
1861.78	44
1862.78	47
1863.78	53
1864.78	47.5
1865.78	40
1866.78	46.5
1867.78	49.5
1868.78	47.5
1869.78	46.5
1870.78	47.5
1871.78	45
1872.78	49.5
1873.78	48.5
1874.78	45.5
1875.78	47
1876.78	49
1877.78	47
1878.78	44.5
1879.77	49.5
1880.77	51
1881.77	46.5
1882.77	49
1883.77	45.5
1884.76	46
1885.76	46.5
1886.76	48
1887.76	46.5
1888.75	50
1889.75	48
1890.75	42
1891.74	47.5
1892.74	49.5
1893.74	51
1894.73	47.5
1895.73	45.5
1896.72	46.5
1897.72	51
1898.72	47
1899.71	47
1900.71	48
1901.7	49.5
1902.7	47.5
1903.69	46
1904.69	44.5
1905.68	48.5
1906.67	46
1907.67	46
1908.66	51.5
1909.66	51
1910.65	49
1911.64	47
1912.64	46.5
1913.63	45
1914.62	43
1915.62	43
1916.61	46.5
1917.6	43
1918.59	44
1919.59	44.5
1920.58	49
1921.57	48.5
1922.56	41.5
1923.55	46.5
1924.55	47.5
1925.54	52
1926.53	47
1927.52	47
1928.51	45.5
1929.5	49.5
1930.49	48
1931.48	50.5
1932.47	43
1933.46	51
1934.45	50.5
1935.44	50.5
1936.43	51.5
1937.42	45.5
1938.41	48
1939.4	46.5
1940.39	49.5
1941.38	51
1942.37	46.5
1943.36	49
1944.34	46
1945.33	46
1946.32	45
1947.31	41.5
1948.3	42.25
1949.28	43
1950.27	41.5
1951.26	46
1952.25	49
1953.23	49.5
1954.22	51
1955.21	44.5
1956.2	51
1957.18	44
1958.17	52
1959.15	42
1960.14	45
1961.13	40
1962.11	46
1963.1	48
1964.08	46.5
1965.07	45
1966.05	48.5
1967.04	47
1968.02	46.5
1969.01	51
1969.99	51.5
1970.98	48.5
1971.96	45.5
1972.94	49.5
1973.93	48
1974.91	46
1975.9	46
1976.88	52.5
1977.86	47
1978.85	44
1979.83	51.5
1980.81	49.5
1981.8	49
1982.78	49
1983.76	50
1984.74	45.5
1985.72	45
1986.71	43.5
1987.69	46.5
1988.67	48.5
1989.65	45
1990.63	44.5
1991.61	42
1992.6	44
1993.58	41.5
1994.56	47
1995.54	48.5
1996.52	49
1997.5	43.5
1998.48	45.5
1999.46	48
2000.44	44
2001.42	43
2002.4	44.5
2003.38	48
2004.36	43
2005.34	44
2006.32	44
2007.29	47
2008.27	48.5
2009.25	48
2010.23	46
2011.21	48
2012.19	51.5
2013.16	42
2014.14	46.5
2015.12	41
2016.1	46
2017.07	38
2018.05	40
2019.03	46.5
2020	43.5
2020.98	47.5
2021.96	44.5
2022.93	42.5
2023.91	49
2024.89	47
2025.86	45
2026.84	43.5
2027.81	46
2028.79	45
2029.77	44.5
2030.74	42
2031.72	45
2032.69	44
2033.67	46.5
2034.64	48
2035.61	42.5
2036.59	51
2037.56	42
2038.54	43.5
2039.51	40
2040.48	47
2041.46	44.5
2042.43	48.5
2043.41	46.5
2044.38	46.5
2045.35	41
2046.32	43
2047.3	46.5
2048.27	46
2049.24	49
2050.21	50.5
2051.19	42
2052.16	46.5
2053.13	42
2054.1	46
2055.07	44.5
2056.04	47.5
2057.02	42.5
2057.99	42.5
2058.96	42
2059.93	39
2060.9	45.5
2061.87	40
2062.84	44.5
2063.81	47
2064.78	47.5
2065.75	46
2066.72	42.5
2067.69	42
2068.66	45.5
2069.63	42
2070.6	41
2071.57	41.5
2072.53	43.5
2073.5	45
2074.47	47
2075.44	44.5
2076.41	43
2077.38	45
2078.34	45
2079.31	43
2080.28	47.5
2081.25	39.5
2082.21	44
2083.18	40
2084.15	45.5
2085.12	42
2086.08	44
2087.05	43
2088.02	47
2088.98	43.5
2089.95	45.5
2090.91	43.5
2091.88	41.5
2092.85	40.5
2093.81	41
2094.78	46.5
2095.74	40
2096.71	45
2097.67	44.5
2098.64	46
2099.6	45.5
2100.57	47.5
2101.53	48
2102.5	43.5
2103.46	39
2104.42	44.5
2105.39	43
2106.35	42.5
2107.31	45
2108.28	44.5
2109.24	48
2110.2	44.5
2111.17	42
2112.13	40
2113.09	46.5
2114.06	37.5
2115.02	45
2115.98	44
2116.94	45.5
2117.9	43
2118.86	43
2119.83	43.5
2120.79	44.5
2121.75	44
2122.71	49.5
2123.67	42.5
2124.63	41.5
2125.59	48
2126.55	46
2127.51	42.5
2128.48	41
2129.43	42
2130.4	41
2131.35	43.5
2132.31	40.5
2133.27	43
2134.23	41.5
2135.19	48.5
2136.15	42
2137.11	43
2138.07	47
2139.03	39
2139.99	42
2140.95	45
2141.9	46
2142.86	40.0012
2143.82	40.0064
2144.78	43.0273
2145.74	39.058
2146.69	43.3182
2147.65	38.261
2148.61	39.089
2149.56	42.9395
2150.52	42.5372
2151.48	41.2906
2152.44	40.7729
2153.39	41.2657
2154.35	43.5347
2155.3	44.1945
2156.26	42.566
2157.22	40.6204
2158.17	39.7793
2159.13	42.4792
2160.08	41.1469
2161.04	43.098
2161.99	45.7386
2162.95	39.1675
2163.9	42.1303
2164.86	43.193
2165.81	41.4835
2166.77	41.0698
2167.72	42.6414
2168.68	42.5091
2169.63	40.1699
2170.58	40.4528
2171.54	38.6096
2172.49	43.1232
2173.44	38.6578
2174.4	39.6748
2175.35	40.4181
2176.3	42.6602
2177.26	38.7447
2178.21	43.6052
2179.16	41.776
2180.11	39.8495
2181.07	39.939
2182.02	44.5053
2182.97	40.2312
2183.92	41.4577
2184.88	40.7105
2185.83	41.6626
2186.78	43.8393
2187.73	42.4098
2188.68	38.1733
2189.63	37.7795
2190.58	40.2889
2191.53	40.7388
2192.48	40.5723
2193.43	41.9796
2194.38	40.8152
2195.33	38.1757
2196.28	41.196
2197.23	41.8872
2198.18	39.7093
2199.13	41.5736
2200.08	41.8582
2201.03	39.2158
2201.98	40.2854
2202.93	42.8941
2203.88	42.9393
2204.83	40.4247
2205.78	38.3859
2206.72	37.8666
2207.67	40.8598
2208.62	41.9917
2209.57	40.3512
2210.52	39.8048
2211.46	44.4052
2212.41	38.5589
2213.36	37.6383
2214.31	46.1883
2215.25	40.3716
2216.2	39.9951
2217.15	37.6175
2218.09	39.7421
2219.04	39.5997
2219.99	43.295
2220.93	41.929
2221.88	43.8574
2222.83	38.3621
2223.77	39.2299
2224.72	40.8671
2225.66	38.1599
2226.61	35.9613
2227.55	38.6704
2228.5	38.1374
2229.44	44.7084
2230.39	41.7289
2231.33	39.7482
2232.28	38.4077
2233.22	42.4614
2234.17	38.938
2235.11	38.3825
2236.05	40.7801
2237	40.0571
2237.94	39.2763
2238.88	41.7685
2239.83	43.6527
2240.04	44
2240.98	37
2241.93	37
2242.88	42
2243.83	43.5
2244.78	36
2245.72	44.5
2246.67	40.5
2247.62	42.5
2248.56	38
2249.51	44
2250.46	42
2251.4	38.5
2252.35	39.5
2253.3	43
2254.24	42.5
2255.19	40.5
2256.14	33
2257.08	37
2258.03	42
2258.97	42
2259.92	39
2260.86	41.5
2261.81	41
2262.75	40.5
2263.7	40
2264.64	40
2265.59	43
2266.53	40
2267.48	39
2268.42	44.5
2269.36	42.5
2270.31	44.5
2271.25	43
2272.19	40
2273.14	39.5
2274.08	37.5
2275.02	40
2275.97	40.5
2276.91	39
2277.85	38.5
2278.8	41.5
2279.74	42
2280.68	37
2281.62	44
2282.56	42.5
2283.51	38.5
2284.45	41.5
2285.39	34.5
2286.33	40.5
2287.27	38
2288.21	36.5
2289.15	39
2290.09	44
2291.04	39
2291.98	35
2292.92	41
2293.86	36
2294.8	40.5
2295.74	45
2296.68	40.5
2297.62	42.5
2298.56	37.5
2299.5	41
2300.44	45.5
2301.37	40
2302.31	37.5
2303.25	40
2304.19	39
2305.13	34
2306.07	41
2307.01	37
2307.94	37.5
2308.88	35.5
2309.82	39.5
2310.76	39
2311.7	33.5
2312.63	34.5
2313.57	40.5
2314.51	40
2315.44	42
2316.38	39.5
2317.32	40.5
2318.26	38
2319.19	36.5
2320.13	42
2321.06	41
2322	37
2322.94	43.5
2323.87	38.5
2324.81	40.5
2325.74	38.5
2326.68	42
2327.61	40.5
2328.55	40.5
2329.48	42.5
2330.42	41
2331.35	38
2332.29	40
2333.22	41
2334.16	42
2335.09	40
2336.02	44
2336.96	39
2337.89	38.5
2338.83	39.5
2339.76	37.5
2340.69	37
2341.63	41.5
2342.56	40
2343.49	40.5
2344.42	41
2345.36	40.5
2346.29	39
2347.22	40
2348.15	42
2349.09	43
2350.02	46
2350.95	37.5
2351.88	36.5
2352.81	39
2353.74	41
2354.68	44.5
2355.61	37
2356.54	48
2357.47	38.5
2358.4	43.5
2359.33	40
2360.26	39
2361.19	40.5
2362.12	40
2363.05	41.5
2363.98	43
2364.91	37
2365.84	38
2366.77	41
2367.7	36
2368.63	37
2369.56	40.5
2370.49	37
2371.41	32.5
2372.34	40
2373.27	43
2374.2	40.5
2375.13	39
2376.06	39.5
2376.98	38
2377.91	40
2378.84	38
2379.77	39
2380.69	43.5
2381.62	39.5
2382.55	37
2383.47	36
2384.4	39
2385.33	35
2386.25	44.5
2387.18	38.5
2388.11	39
2389.03	40.5
2389.96	39
2390.89	36
2391.81	39
2392.74	42
2393.66	39.5
2394.59	40
2395.51	39.5
2396.44	38.5
2397.36	32.5
2398.29	38
2399.21	39
2400.14	35
2401.06	36.5
2401.99	42
2402.91	38.5
2403.83	39
2404.76	39
2405.68	41.5
2406.6	36
2407.53	38
2408.45	36.5
2409.37	40.5
2410.3	35
2411.22	41.5
2412.14	39
2413.06	38
2413.99	40
2414.91	39
2415.83	34
2416.75	37.5
2417.68	39.5
2418.6	38
2419.52	39.5
2420.44	43
2421.36	38
2422.28	36.5
2423.2	39
2424.12	37.5
2425.05	38
2425.97	40.5
2426.89	39
2427.81	39
2428.73	41
2429.65	41.5
2430.57	40
2431.49	41
2432.41	43.5
2433.33	39
2434.25	39.5
2435.17	35.5
2436.08	39
2437	41.5
2437.92	38.5
2438.84	36
2439.76	38.5
2440.68	36
2441.6	39
2442.51	37.5
2443.43	38.5
2444.35	36
2445.27	40
2446.19	36
2447.1	39.5
2448.02	39
2448.94	38.5
2449.85	43.5
2450.77	41
2451.69	38.5
2452.61	37
2453.52	41
2454.44	40.5
2455.35	38
2456.27	40
2457.19	42
2458.1	36
2459.02	42.5
2459.94	44
2460.85	39.5
2461.77	34
2462.68	38.5
2463.6	36
2464.51	39
2465.43	39
2466.34	38
2467.25	40.5
2468.17	42
2469.08	36.5
2470	36.5
2470.91	37
2471.83	38.5
2472.74	42.5
2473.65	38.5
2474.57	37
2475.48	36
2476.39	40
2477.31	39
2478.22	38.5
2479.13	40
2480.04	38
2480.96	41.5
2481.87	37
2482.78	39.5
2483.69	38.5
2484.6	35
2485.52	42
2486.43	38
2487.34	40.5
2488.25	38
2489.16	38.5
2490.07	37.5
2490.99	39
2491.9	43
2492.81	43
2493.72	40.5
2494.63	42
2495.54	42.5
2496.45	44.5
2497.36	41.5
2498.27	49
2499.18	41
2500.09	42
2501	46
2501.91	46.5
2502.82	40
2503.73	46.5
2504.63	40.5
2505.54	40.5
2506.45	35.5
2507.36	44
2508.27	38
2509.18	40.5
2510.09	41
2510.99	40.5
2511.9	44
2512.81	41
2513.72	39.5
2514.62	39
2515.53	42
2516.44	38.5
2517.35	38
2518.25	37
2519.16	37
2520.07	38
2520.97	39
2521.88	43
2522.79	42.5
2523.69	37.5
2524.6	38
2525.51	44.5
2526.41	38
2527.32	39.5
2528.22	41.5
2529.13	39.5
2530.03	38
2530.94	34.5
2531.84	36
2532.75	38
2533.65	38
2534.56	42
2535.46	40
2536.37	39
2537.27	32
2538.17	40
2539.08	39
2539.98	40.5
2540.89	40.5
2541.79	36
2542.69	40
2543.6	41
2544.5	39
2545.4	45
2546.31	39
2547.21	38
2548.11	37.5
2549.01	39.5
2549.92	37.5
2550.82	36
2551.72	39.5
2552.62	39.5
2553.52	39
2554.42	33
2555.33	40.5
2556.23	38.5
2557.13	40.5
2558.03	39.5
2558.93	38
2559.83	35.5
2560.73	39.5
2561.63	41
2562.53	36
2563.43	40
2564.33	40
2565.24	34
2566.13	37
2567.04	38
2567.93	38
2568.83	40
2569.73	42
2570.63	39.5
2571.53	43
2572.43	40.5
2573.33	37
2574.23	43.5
2575.13	36.5
2576.03	36
2576.92	36
2577.82	37.5
2578.72	37.5
2579.62	38
2580.52	38
2581.41	36.5
2582.31	36
2583.21	35
2584.11	36.5
2585	39
2585.9	34.5
2586.8	32
2587.69	38
2588.59	32
2589.49	36.5
2590.38	33.5
2591.28	38
2592.18	39
2593.07	42
2593.97	37.5
2594.86	32
2595.76	37
2596.66	35
2597.55	36.5
2598.45	40
2599.34	39
2600.24	34.5
2601.13	38
2602.03	41
2602.92	35
2603.81	39.5
2604.71	42
2605.6	43.5
2606.5	39
2607.39	38
2608.28	36.5
2609.18	33.5
2610.07	35
2610.97	34.5
2611.86	34.5
2612.75	40
2613.64	39
2614.54	37
2615.43	37
2616.32	38
2617.22	35
2618.11	39.5
2619	37.5
2619.89	37
2620.78	37.5
2621.68	38
2622.57	40.5
2623.46	37.5
2624.35	40
2625.24	35
2626.13	41.5
2627.02	38
2627.91	38
2628.81	39.5
2629.7	40
2630.59	38
2631.48	36
2632.37	36
2633.26	35.5
2634.15	35.5
2635.04	36
2635.93	38
2636.82	39
2637.71	37
2638.59	35
2639.48	30.5
2640.37	35.5
2641.26	36.5
2642.15	36.5
2643.04	45
2643.93	36.5
2644.82	36.5
2645.71	37
2646.59	37
2647.48	39.5
2648.37	37
2649.26	36.5
2650.15	36.5
2651.03	37
2651.92	36.5
2652.81	38.5
2653.69	37
2654.58	38
2655.47	35
2656.35	38.5
2657.24	36.5
2658.13	40
2659.01	38
2659.9	41
2660.79	35.5
2661.67	41
2662.56	36.5
2663.44	39
2664.33	35.5
2665.22	40
2666.1	38
2666.99	37.5
2667.87	32.5
2668.76	38.5
2669.64	36.5
2670.52	34
2671.41	36.5
2672.29	30
2673.18	36
2674.06	39
2674.95	36
2675.83	40
2676.71	39.5
2677.6	40
2678.48	38
2679.36	36
2680.25	39.5
2681.13	40
2682.01	36.5
2682.9	39
2683.78	36
2684.66	37.5
2685.55	40.5
2686.43	33.5
2687.31	38.5
2688.19	39
2689.07	33.5
2689.96	38
2690.84	33
2691.72	36
2692.6	37.5
2693.48	34
2694.36	36.5
2695.24	34
2696.12	41.5
2697	34
2697.89	35.5
2698.77	35.5
2699.65	33
2700.53	38.5
2701.41	34.5
2702.29	33.5
2703.17	39.5
2704.05	37
2704.93	40.5
2705.81	37
2706.69	41
2707.57	35
2708.44	35.5
2709.32	37
2710.2	37.5
2711.08	38.5
2711.96	38.5
2712.84	37.5
2713.72	39.5
2714.59	35.5
2715.47	40.5
2716.35	39
2717.23	38
2718.11	39
2718.98	40
2719.86	38
2720.74	36
2721.62	43.5
2722.49	38
2723.37	35.5
2724.25	36
2725.12	37.5
2726	38
2726.88	40
2727.75	38
2728.63	34.5
2729.51	37.5
2730.38	37.5
2731.26	43
2732.13	37.5
2733.01	32.5
2733.88	37
2734.76	34
2735.63	35.5
2736.51	35.5
2737.38	37
2738.26	36
2739.13	38
2740.01	34
2740.88	45
2741.76	30
2742.63	37.5
2743.5	41.5
2744.38	38.5
2745.25	30
2746.13	38
2747	34
2747.87	40
2748.75	38
2749.62	37.5
2750.49	41.5
2751.36	34
2752.24	35
2753.11	35.5
2753.98	39
2754.86	35.5
2755.73	39.5
2756.6	41.5
2757.47	41.5
2758.34	38.5
2759.22	34.5
2760.09	40
2760.96	37
2761.83	39
2762.7	35.5
2763.57	39.5
2764.44	43
2765.31	40.5
2766.18	43.5
2767.06	42
2767.93	44
2768.8	38.5
2769.67	41.5
2770.54	39
2771.41	43
2772.28	42.5
2773.15	42.5
2774.02	39.5
2774.89	39.5
2775.75	45.5
2776.62	41
2777.49	43
2778.36	46
2779.23	43.5
2780.1	47.5
2780.97	45
2781.84	47
2782.71	47
2783.57	51
2784.44	50
2785.31	50
2786.18	47
2787.04	51
2787.91	51.5
2788.78	50
2789.65	52.5
2790.51	50.5
2791.38	56
2792.25	56.5
2793.12	48
2793.98	57
2794.85	53
2795.72	53
2796.58	53
2797.45	53.5
2798.31	58
2799.18	51.5
2800.05	56.5
2800.91	58.5
2801.78	58
2802.64	58
2803.51	59
2804.37	61.5
2805.24	52.5
2806.1	54
2806.97	58
2807.83	50
2808.7	58
2809.56	57.5
2810.43	53
2811.29	57
2812.15	56
2813.02	56
2813.88	54.5
2814.75	56.5
2815.61	60
2816.47	58
2817.34	56
2818.2	55
2819.06	60.5
2819.92	56.5
2820.79	55
2821.65	52.5
2822.51	60.5
2823.37	54.5
2824.24	58.5
2825.1	52.5
2825.96	46.5
2826.82	50.5
2827.69	49
2828.55	51
2829.41	60.5
2830.27	53
2831.13	58.5
2831.99	57
2832.85	59
2833.71	59.5
2834.58	54
2835.44	55.5
2836.3	54
2837.16	59.5
2838.02	59.5
2838.88	55
2839.74	57.5
2840.6	61
2841.46	55.5
2842.32	55.5
2843.18	59
2844.04	58.5
2844.9	58.5
2845.75	57
2846.61	55.5
2847.47	59
2848.33	57.5
2849.19	57.5
2850.05	53.5
2850.91	60
2851.77	61
2852.62	60
2853.48	57.5
2854.34	61.5
2855.2	57
2856.06	64
2856.91	58
2857.77	61.5
2858.63	65.5
2859.48	70
2860.34	59.5
2861.2	64
2862.06	63
2862.91	70
2863.77	66
2864.63	70.5
2865.48	63
2866.34	72
2867.19	77.5
2868.05	74
2868.91	78.5
2869.76	75
2870.62	87
2871.47	84
2872.33	91.5
2873.18	85
2874.04	87
2874.89	89.5
2875.75	97
2876.6	100.5
2877.46	102
2878.31	104.5
2879.17	107
2880.02	110.5
2880.88	101.5
2881.73	118.5
2882.58	124.5
2883.44	120
2884.29	130
2885.14	139
2886	147.5
2886.85	155
2887.7	158.5
2888.56	160.5
2889.41	176.5
2890.26	182
2891.12	183
2891.97	204
2892.82	214.5
2893.67	236
2894.52	256
2895.38	264
2896.23	281
2897.08	300.5
2897.93	323.5
2898.78	358
2899.64	377
2900.49	395.5
2901.34	417.5
2902.19	459
2903.04	481.5
2903.89	490
2904.74	507
2905.59	500
2906.44	519
2907.29	523
2908.14	510.5
2908.99	483
2909.84	456
2910.69	430
2911.54	411
2912.39	392
2913.24	371
2914.09	335
2914.94	303.5
2915.79	282
2916.64	261
2917.49	241
2918.34	219.5
2919.18	197
2920.03	191
2920.88	183.5
2921.73	166.5
2922.58	154.5
2923.42	148
2924.27	141
2925.12	127.5
2925.97	118.5
2926.82	114.5
2927.66	106
2928.51	107.5
2929.36	109
2930.2	99
2931.05	101
2931.9	98
2932.74	84.5
2933.59	89.5
2934.44	89
2935.28	92
2936.13	84
2936.98	91
2937.82	81.5
2938.67	80.5
2939.51	82.5
2940.36	83.5
2941.2	83
2942.05	81
2942.9	81
2943.74	89
2944.58	87.5
2945.43	87.5
2946.27	87
2947.12	77
2947.96	92.5
2948.81	97
2949.65	96
2950.5	97.5
2951.34	109
2952.18	108
2953.03	111.5
2953.87	123
2954.71	128.5
2955.56	129
2956.4	144
2957.24	143
2958.09	158
2958.93	173.5
2959.77	176.5
2960.62	194
2961.46	212
2962.3	210.5
2963.14	231.5
2963.98	222
2964.83	236.5
2965.67	243
2966.51	231.5
2967.35	230
2968.19	237
2969.04	208.5
2969.88	217
2970.72	213
2971.56	194.41
2972.4	180.855
2973.24	168.397
2974.08	168.755
2974.92	147.847
2975.76	153.528
2976.6	134.255
2977.44	130.341
2978.28	127.811
2979.12	119.081
2979.96	117.204
2980.8	108.745
2981.64	99.0916
2982.48	97.2522
2983.32	88.1855
2984.16	84.9649
2985	84.2971
2985.84	73.6573
2986.68	75.3151
2987.52	77.9754
2988.35	73.4211
2989.19	72.0405
2990.03	68.7983
2990.87	66.0578
2991.71	65.7353
2992.55	63.0384
2993.38	57.3819
2994.22	61.8801
2995.06	58.7893
2995.9	61.0037
2996.73	59.4712
2997.57	56.1558
2998.41	52.9368
2999.25	55.5476
3000.08	55.1578
3000.92	50.9502
3001.76	52.6808
3002.59	52.8846
3003.43	49.6029
3004.27	47.6696
3005.1	48.2739
3005.94	47.8233
3006.78	47.7399
3007.61	44.597
3008.45	46.5853
3009.28	43.7511
3010.12	43.8544
3010.95	46.1745
3011.79	41.2511
3012.62	39.5335
3013.46	42.7027
3014.29	45.3089
3015.13	46.1057
3015.96	45.852
3016.8	43.8706
3017.63	40.9895
3018.47	41.5316
3019.3	41.1213
3020.14	42.1797
3020.97	42.5032
3021.8	36.9428
3022.64	39.4991
3023.47	41.3485
3024.3	39.2064
3025.14	38.5674
3025.97	42.3408
3026.8	42.4834
3027.64	40.5399
3028.47	39.9429
3029.3	40.4132
3030.14	37.2766
3030.97	37.1653
3031.8	36.6974
3032.63	38.7043
3033.46	37.6449
3034.3	39.0399
3035.13	38.9562
3035.96	38.25
3036.79	39.2521
3037.62	38.3139
3038.46	37.9473
3039.29	37.9348
3040.12	39.2438
3040.95	37.144
3041.78	37.0427
3042.61	39.287
3043.44	40.6602
3044.27	37.5636
3045.1	34.6334
3045.93	36.6207
3046.76	35.5756
3047.59	35.7612
3048.42	36.6468
3049.25	36.8776
3050.08	38.6134
3050.91	39.1303
3051.74	39.0375
3052.57	38.7493
3053.4	36.7772
3054.23	37.5758
3055.06	36.2978
3055.89	35.174
3056.72	35.8302
3057.32	34
3058.15	37
3058.98	36.5
3059.82	32
3060.65	34
3061.48	36
3062.31	40
3063.15	38.5
3063.98	34
3064.81	37.5
3065.64	38
3066.48	34
3067.31	35
3068.14	39
3068.97	38
3069.8	34
3070.63	40
3071.47	37
3072.3	37
3073.13	39
3073.96	32
3074.79	37
3075.62	34.5
3076.45	40
3077.28	41.5
3078.11	43.5
3078.94	38
3079.77	35
3080.6	39
3081.43	38
3082.26	36.5
3083.09	37.5
3083.92	34
3084.75	43
3085.58	37.5
3086.41	37
3087.24	33.5
3088.07	39
3088.9	34.5
3089.73	35.5
3090.55	38.5
3091.38	37.5
3092.21	34.5
3093.04	40.5
3093.87	40
3094.7	37.5
3095.52	36
3096.35	34
3097.18	38.5
3098.01	38.5
3098.84	40
3099.66	37
3100.49	38
3101.32	38.5
3102.14	37
3102.97	43.5
3103.8	36.5
3104.62	39
3105.45	40.5
3106.28	39.5
3107.1	41
3107.93	37.5
3108.76	40
3109.58	39
3110.41	36
3111.23	37
3112.06	37.5
3112.89	42
3113.71	40.5
3114.54	39.5
3115.36	35
3116.19	41.5
3117.01	39.5
3117.84	37.5
3118.66	37.5
3119.49	38
3120.31	41.5
3121.13	37
3121.96	35
3122.78	36.5
3123.61	36
3124.43	38
3125.25	35.5
3126.08	38
3126.9	37
3127.73	38
3128.55	35.5
3129.37	35
3130.19	35.5
3131.02	39
3131.84	43
3132.66	32.5
3133.49	34
3134.31	38.5
3135.13	38
3135.95	36.5
3136.78	39.5
3137.6	32
3138.42	38.5
3139.24	34
3140.06	41.5
3140.88	35
3141.71	36
3142.53	37.5
3143.35	35.5
3144.17	36
3144.99	35.5
3145.81	31.5
3146.63	36
3147.45	35.5
3148.27	37
3149.09	35.5
3149.91	34
3150.73	37.5
3151.56	37
3152.37	39
3153.2	36
3154.01	35
3154.83	36.5
3155.65	33
3156.47	36
3157.29	34.5
3158.11	30
3158.93	34.5
3159.75	32.5
3160.57	36
3161.39	37
3162.21	34
3163.02	33.5
3163.84	35
3164.66	33.5
3165.48	31
3166.3	35
3167.11	35.5
3167.93	37.5
3168.75	29.5
3169.57	32
3170.39	35.5
3171.2	30
3172.02	32.5
3172.84	37.5
3173.65	33
3174.47	30.5
3175.29	32
3176.1	35.5
3176.92	30.5
3177.74	29.5
3178.55	35
3179.37	30
3180.19	31
3181	32.5
3181.82	33
3182.63	32.5
3183.45	33.5
3184.27	32.5
3185.08	34.5
3185.9	29
3186.71	29.5
3187.53	31
3188.34	34.5
3189.16	30.5
3189.97	33.5
3190.79	30
3191.6	30.5
3192.41	31.5
3193.23	36.5
3194.04	29.5
3194.86	32
3195.67	33
3196.48	28
3197.3	33.5
3198.11	31
3198.93	37
3199.74	32
3200.55	34.5
3201.36	31.5
3202.18	33
3202.99	33.5
3203.8	30
3204.62	30.5
3205.43	34.5
3206.24	35
3207.05	30
3207.87	33.5
3208.68	30
3209.49	30.5
3210.3	32
3211.11	29.5
3211.93	31.5
3212.74	28
3213.55	32.5
3214.36	30
3215.17	32.5
3215.98	30.5
3216.79	29
3217.6	31.5
3218.41	36
3219.22	32
3220.03	29.5
3220.85	31
3221.66	30
3222.47	30
3223.28	33
3224.09	31.5
3224.9	35
3225.71	33.5
3226.52	32.5
3227.33	30.5
3228.13	34.5
3228.94	31
3229.75	37
3230.56	30
3231.37	30
3232.18	36.5
3232.99	32
3233.8	33.5
3234.61	31
3235.41	33
3236.22	33.5
3237.03	29.5
3237.84	30
3238.65	34.5
3239.45	31.5
3240.26	28.5
3241.07	30.5
3241.88	26
3242.68	33.5
3243.49	36.5
3244.3	33
3245.1	32.5
3245.91	31
3246.72	29
3247.53	27.5
3248.33	30.5
3249.14	31.5
3249.95	32.5
3250.75	31.5
3251.56	34
3252.36	35
3253.17	32.5
3253.97	35.5
3254.78	33
3255.59	32
3256.39	33.5
3257.2	32
3258	32.5
3258.81	34
3259.61	27
3260.42	31
3261.22	33.5
3262.03	33
3262.83	30.5
3263.64	35
3264.44	27.5
3265.24	30
3266.05	34
3266.85	32.5
3267.66	27
3268.46	29
3269.26	29.5
3270.07	33
3270.87	29.5
3271.67	30.5
3272.48	32.5
3273.28	30.5
3274.08	28
3274.89	36
3275.69	29
3276.49	30.5
3277.29	30
3278.1	33
3278.9	33.5
3279.7	30
3280.5	31.5
3281.3	33
3282.11	32
3282.91	29.5
3283.71	32.5
3284.51	28
3285.31	28.5
3286.11	33
3286.91	32
3287.72	34.5
3288.52	34.5
3289.32	32.5
3290.12	29
3290.92	29.5
3291.72	30
3292.52	28
3293.32	34
3294.12	30.5
3294.92	28.5
3295.72	31
3296.52	31
3297.32	32
3298.12	30.5
3298.92	29.5
3299.72	27.5
3300.52	31
3301.32	32
3302.12	26
3302.92	33
3303.71	27.5
3304.51	31.5
3305.31	29.5
3306.11	33.5
3306.91	29.5
3307.71	30.5
3308.5	32
3309.3	27.5
3310.1	33
3310.9	33.5
3311.7	36.5
3312.49	31.5
3313.29	33
3314.09	27
3314.89	35.5
3315.68	28.5
3316.48	28.5
3317.28	27
3318.07	26
3318.87	33.5
3319.67	32.5
3320.46	32.5
3321.26	28
3322.06	29.5
3322.85	32.5
3323.65	26.5
3324.44	34.5
3325.24	34.5
3326.04	30
3326.83	31
3327.63	32
3328.42	29.5
3329.22	29
3330.01	32
3330.81	33
3331.6	27
3332.4	29
3333.19	30
3333.99	31
3334.78	33.5
3335.58	33
3336.37	27.5
3337.17	33
3337.96	30.5
3338.75	33.5
3339.55	32
3340.34	32.5
3341.13	32.5
3341.93	29
3342.72	32
3343.51	31
3344.31	29
3345.1	29.5
3345.89	27
3346.69	31.5
3347.48	29
3348.27	30
3349.06	31.5
3349.86	30.5
3350.65	28.5
3351.44	31
3352.23	32
3353.03	33
3353.82	32
3354.61	32.5
3355.4	30.5
3356.19	32.5
3356.98	26.5
3357.78	35.5
3358.57	30.5
3359.36	31
3360.15	28.5
3360.94	31.5
3361.73	30
3362.52	28
3363.31	30.5
3364.1	29
3364.89	28.5
3365.68	24
3366.47	31
3367.26	28.5
3368.05	30
3368.84	30
3369.63	32.5
3370.42	26.5
3371.21	30
3372	30.5
3372.79	26
3373.58	29
3374.37	29.5
3375.16	28
3375.95	30.5
3376.73	28
3377.52	33
3378.31	33
3379.1	32.5
3379.89	30
3380.68	29.5
3381.46	31
3382.25	32
3383.04	28
3383.83	31
3384.62	31
3385.4	28.5
3386.19	31
3386.98	26
3387.76	34
3388.55	28.5
3389.34	33
3390.13	28
3390.91	32
3391.7	31.5
3392.49	26.5
3393.27	30.5
3394.06	26.5
3394.84	29.5
3395.63	25.5
3396.42	29
3397.2	33.5
3397.99	28
3398.77	28
3399.56	26
3400.34	29
3401.13	29
3401.92	32.5
3402.7	35
3403.49	27
3404.27	37
3405.06	27.5
3405.84	32
3406.62	34.5
3407.41	30
3408.19	29
3408.98	28
3409.76	35
3410.55	32
3411.33	31
3412.11	30.5
3412.9	31
3413.68	36
3414.46	26.5
3415.25	31.5
3416.03	28
3416.81	35
3417.6	31
3418.38	32
3419.16	30
3419.95	31
3420.73	30
3421.51	34
3422.29	31
3423.08	29
3423.86	25.5
3424.64	33.5
3425.42	27.5
3426.2	32
3426.98	28
3427.77	28
3428.55	29.5
3429.33	28.5
3430.11	29
3430.89	28.5
3431.67	32
3432.45	31
3433.24	32
3434.02	35
3434.8	32
3435.58	32.5
3436.36	27.5
3437.14	27
3437.92	30
3438.7	29.5
3439.48	32
3440.26	26
3441.04	25
3441.82	29.5
3442.6	29.5
3443.38	27.5
3444.16	32.5
3444.94	28
3445.71	31.5
3446.49	33
3447.27	34
3448.05	30
3448.83	30.5
3449.61	30.5
3450.39	31
3451.17	29.5
3451.94	28.5
3452.72	33
3453.5	33.5
3454.28	28.5
3455.06	27
3455.83	25
3456.61	30
3457.39	31
3458.17	32.5
3458.94	28
3459.72	30.5
3460.5	30
3461.28	31
3462.05	31
3462.83	30
3463.61	30
3464.38	31.5
3465.16	30.5
3465.93	29.5
3466.71	26
3467.49	28
3468.26	30.5
3469.04	27
3469.82	27.5
3470.59	25
3471.37	33
3472.14	29
3472.92	27.5
3473.69	30
3474.47	26.5
3475.24	30
3476.02	31
3476.79	27.5
3477.57	27.5
3478.34	28
3479.12	32
3479.89	30
3480.67	29.5
3481.44	31.5
3482.21	27
3482.99	27
3483.76	30
3484.54	33
3485.31	26
3486.08	32
3486.86	31.5
3487.63	30.5
3488.4	26
3489.18	29.5
3489.95	30.5
3490.72	29
3491.5	32.5
3492.27	29
3493.04	27.5
3493.81	32.5
3494.59	29.5
3495.36	32
3496.13	25.5
3496.9	29
3497.67	24.5
3498.45	30.5
3499.22	28.5
3499.99	32.5
