#Acq. time (s)=	5
#Accumulations=	5
#Range (cm-ｹ)=	100...3500
#Windows=	4
#Autofocus=	Off
#AutoExposure=	Off
#Spike filter=	Multiple accum.
#Delay time (s)=	0
#Binning=	1
#Readout mode=	Signal
#DeNoise=	Off
#ICS correction=	Off
#Dark correction=	Off
#Inst. Process=	Off
#Instrument=	LabRAM HR Evol
#Detector=	Syncerity OE
#Objective=	x100_VIS
#Grating=	600 (500nm)
#ND Filter=	25%
#Laser=	633nm_Edge
#Hole=	100.021
#Range=	Visible
#Project=	verificaciones
#Sample=	a4
#Site=	lined
#Title=	bolusa4lined
#Remark=	
#Date=	09.01.2026 15:14
#Acquired=	09.01.2026 15:14:49
100.695	82.5
101.978	91
103.262	94.5
104.545	91
105.829	92
107.112	84.5
108.394	88.5
109.676	93.5
110.958	90.5
112.24	91
113.522	89.5
114.803	95
116.084	86
117.365	99
118.646	99.5
119.927	94
121.207	95.5
122.487	103.5
123.767	110
125.047	103
126.326	107.5
127.606	114
128.885	119
130.164	117
131.442	124
132.721	125
133.999	126.5
135.277	128
136.555	132.5
137.831	136
139.109	130
140.386	140
141.663	131.5
142.94	150
144.216	142
145.493	150
146.769	160
148.043	155
149.319	159
150.595	162.5
151.87	174.5
153.145	171
154.42	172.5
155.693	177.5
156.968	181.5
158.242	181
159.516	183
160.79	180
162.062	175
163.336	175
164.609	171
165.882	167
167.153	168.5
168.426	168.5
169.699	160
170.971	157.5
172.241	159
173.513	159.5
174.785	158.5
176.055	166
177.326	173
178.597	167
179.866	171
181.137	167
182.407	171
183.676	175.5
184.946	172.5
186.216	183.5
187.484	180
188.753	178
190.022	172.5
191.29	177
192.558	189
193.825	184
195.094	170
196.36	163
197.628	161.5
198.896	168.5
200.162	156
201.429	160
202.695	153
203.962	140.5
205.227	145
206.493	144
207.758	135.5
209.024	131.5
210.289	130
211.554	116.5
212.818	131.5
214.083	131
215.347	119.5
216.612	124
217.875	119.5
219.138	115
220.402	110
221.665	113
222.928	109
224.19	109.5
225.454	108.5
226.715	107
227.977	102.5
229.24	103
230.501	100
231.762	96
233.024	99
234.284	87
235.546	98.5
236.806	90
238.066	101
239.327	92.5
240.587	92
241.846	84
243.105	93.5
244.365	83
245.624	82
246.882	92.5
248.142	87.5
249.4	90
250.658	91.5
251.916	92
253.174	86.5
254.432	87.5
255.689	85.5
256.945	86
258.202	87.5
259.46	83
260.716	78.5
261.972	86
263.228	84.5
264.483	86.5
265.74	80
266.996	80
268.251	73
269.505	78
270.76	81.5
272.014	77
273.268	77
274.522	78
275.778	80
277.031	80
278.285	79.5
279.538	72
280.791	78.5
282.043	76
283.296	71
284.548	77.5
285.8	69.5
287.052	74.5
288.304	73.5
289.556	77
290.807	70
292.058	78
293.309	74
294.56	75
295.81	74
297.061	75
298.311	74
299.561	73
300.81	79.5
302.06	78
303.309	77.5
304.558	78.5
305.807	78.5
307.056	73
308.305	78
309.551	76.5
310.8	78
312.047	73
313.295	74
314.543	71.5
315.79	80
317.037	75.5
318.284	81.5
319.529	77
320.776	72
322.022	72
323.268	69.5
324.514	72
325.758	78.5
327.004	71
328.249	79.5
329.494	72
330.739	68.5
331.982	70
333.227	74
334.471	73
335.715	78.5
336.958	75.5
338.201	76
339.445	74
340.687	76.5
341.93	75
343.173	74
344.414	75.5
345.657	73.5
346.899	74
348.14	76
349.381	73
350.623	70
351.863	71
353.104	74.5
354.346	74
355.585	76.5
356.826	71
358.065	72.5
359.305	70
360.545	71.5
361.784	72
363.023	77.5
364.261	66.5
365.501	69
366.738	74
367.977	74
369.216	79
370.453	73
371.691	70
372.928	72.5
374.166	70.5
375.402	70.5
376.64	67.5
377.876	68
379.111	71.5
380.348	73
381.584	69
382.82	75
384.055	70
385.291	68
386.526	67.5
387.76	71
388.996	71
390.229	67.5
391.465	68
392.698	65.5
393.931	70
395.166	70
396.399	71
397.632	69.5
398.866	74
400.098	69
401.33	66.5
402.563	70.5
403.795	68.5
405.027	68.5
406.259	67.5
407.491	68.5
408.721	67
409.954	69
411.184	68
412.415	63
413.645	69
414.876	73.5
416.106	65
417.335	62
418.565	63
419.794	64
421.024	74.5
422.253	71
423.482	69.5
424.71	65
425.938	66
427.168	72
428.396	72
429.623	68.5
430.851	75
432.078	69
433.305	72.5
434.532	66.5
435.758	68
436.986	70
438.212	73.5
439.438	74
440.664	68.5
441.89	74
443.115	71.5
444.34	73
445.566	74.5
446.79	69.5
448.015	70
449.24	74
450.464	74
451.688	78.5
452.912	77.5
454.135	86.5
455.359	78
456.582	85
457.805	82.5
459.028	84.5
460.251	86.5
461.473	94
462.696	88.5
463.918	93.5
465.14	100
466.36	102
467.582	104.5
468.803	106
470.024	118
471.245	123.5
472.466	122.5
473.686	133
474.907	147
476.126	168
477.346	180
478.565	199.5
479.785	218.5
481.004	230.5
482.224	263.5
483.441	282
484.66	301.5
485.879	325.5
487.097	332.5
488.314	335
489.532	344
490.75	330
491.967	313.5
493.184	300
494.401	293.5
495.618	279.5
496.835	260.5
498.05	255
499.267	220.5
500.483	210
501.698	192.5
502.913	187.5
504.129	171.5
505.343	164
506.559	161.5
507.774	144
508.987	145
510.202	139.5
511.415	132
512.63	125.5
513.844	124.5
515.056	122.5
516.27	117.5
517.482	106.5
518.696	102
519.907	102.5
521.121	96
522.332	95.5
523.545	98
524.757	96
525.968	92
527.18	94
528.39	93
529.602	85.5
530.812	85
532.023	88.5
533.233	86.5
534.443	81
535.653	80.5
536.862	79.5
538.073	81.5
539.281	79
540.491	81
541.7	76.5
542.908	79.5
544.117	74
545.325	72
546.534	79
547.741	73
548.949	73.5
550.157	74.5
551.364	71
552.57	76.5
553.778	71.5
554.985	73.5
556.191	71
557.398	72
558.604	72.5
559.809	70.5
561.014	75
562.221	70
563.426	72
564.63	69
565.835	70
567.041	71.5
568.245	65
569.449	69.5
570.653	69
571.856	71
573.061	71
574.264	69
575.467	73.5
576.67	71
577.873	66
579.076	68.5
580.279	67
581.481	65
582.683	67
583.884	70.5
585.086	69
586.287	64.5
587.488	69.5
588.689	62
589.891	71
591.092	67
592.292	66
593.492	68
594.692	66
595.892	64.5
597.092	67.5
598.291	61.5
599.49	67.5
600.689	68
601.888	68.5
603.087	68
604.285	64.5
605.483	69
606.681	65.5
607.879	67.5
609.077	70.5
610.274	65.5
611.472	58.5
612.668	65.5
613.865	73
615.061	71
616.258	67
617.454	68.5
618.65	69
619.846	60.5
621.042	70
622.238	67.5
623.432	66
624.627	74
625.822	63
627.017	72.5
628.212	66.5
629.406	68.5
630.599	73
631.793	64
632.987	66
634.181	71
635.373	70.5
636.566	66.5
637.76	71
638.953	77.5
640.144	64.5
641.337	71.5
642.529	73
643.721	72
644.912	74
646.104	77.5
647.295	71.5
648.485	77
649.677	73
650.868	68
652.057	67
653.248	70
654.437	69.5
655.628	76
656.818	70.5
658.006	73.5
659.196	68
660.384	71
661.574	75
662.763	73
663.951	75.5
665.14	78.5
666.327	79.5
667.515	80.5
668.702	83
669.891	79.5
671.077	83
672.265	77.5
673.451	84
674.638	87.5
675.824	88
677.011	92.5
678.197	96
679.383	98.5
680.568	106.5
681.755	113
682.939	114
684.124	115.5
685.309	127
686.494	128.5
687.679	124.5
688.863	120.5
690.046	121
691.231	114
692.414	114.5
693.599	115
694.781	114
695.964	123.5
697.148	129.5
698.33	129.5
699.512	125
700.694	140.5
701.877	152
703.059	162
704.24	177.5
705.423	207
706.604	226.5
707.784	240
708.965	261.5
710.147	256.5
711.327	223.5
712.507	210
713.687	181
714.867	144
716.048	129.5
717.227	106
718.406	101
719.585	94.5
720.764	94
721.942	93.5
723.122	71
724.3	84
725.478	79
726.656	79
727.834	72
729.011	71
730.189	71
731.366	72
732.543	75
733.719	70.5
734.896	70.5
736.072	68.5
737.249	66.5
738.426	69
739.602	68
740.777	68.5
741.953	66
743.128	65
744.303	69
745.477	66.5
746.651	65.5
747.826	64
749	72.5
750.174	61
751.348	68.5
752.522	61
753.696	66.5
754.869	67
756.043	69
757.216	64
758.389	66
759.561	65.5
760.732	65
761.905	70
763.077	70
764.249	63
765.421	67.5
766.592	69
767.762	58.5
768.934	68.5
770.105	66.5
771.275	70
772.446	77.5
773.615	64
774.786	68.5
775.956	70.5
777.126	77
778.294	74.5
779.464	75.5
780.633	71
781.801	86.5
782.97	82
784.139	87
785.306	92
786.475	94
787.643	90
788.81	93
789.978	89
791.146	93.5
792.312	94
793.479	89
794.647	87.5
795.812	80.5
796.979	79.5
798.144	81
799.311	72
800.477	77
801.642	76
802.808	70
803.972	74
805.138	66.5
806.302	66.5
807.467	70.5
808.631	76.5
809.796	63
810.959	61
812.124	70
813.287	71
814.451	67
815.614	68
816.777	68.5
817.94	67.5
819.102	70
820.265	64.5
821.427	61
822.59	59.5
823.751	62
824.912	63
826.074	64.5
827.235	63.5
828.397	66
829.558	63
830.718	60.5
831.879	66.5
833.039	71.5
834.199	64.5
835.359	63
836.519	62
837.679	62
838.838	63.5
839.998	65.5
841.156	68
842.315	61
843.473	68
844.633	65
845.791	73
846.948	65.5
848.106	63.5
849.263	72
850.422	69.5
851.579	66
852.736	61.5
853.892	70
855.049	71.5
856.205	74
857.363	78
858.519	80
859.674	74.5
860.83	79
861.986	81
863.141	82
864.296	79
865.451	73.5
866.605	79.5
867.76	67.5
868.914	72.5
870.069	66
871.224	73
872.378	69.5
873.531	66
874.685	64
875.838	64
876.991	68.5
878.144	69.5
879.296	67
880.448	65.5
881.6	68
882.753	65
883.905	67
885.057	63
886.208	57
887.36	59.5
888.511	61.5
889.662	63
890.813	63.5
891.964	58
893.113	58.5
894.264	59.5
895.414	57
896.564	66
897.714	61.5
898.864	59
900.012	62.5
901.161	62
902.31	58
903.459	59.5
904.607	59
905.756	57
906.904	60
908.052	58.5
909.199	58.5
910.347	56
911.495	54
912.643	55.5
913.789	60
914.936	58
916.083	59
917.229	58
918.375	60
919.522	53
920.667	62
921.813	58.5
922.959	52.5
924.104	62.5
925.249	57
926.393	56
927.539	59.5
928.684	54.5
929.827	57
930.972	55.5
932.115	54.5
933.26	56
934.403	60.5
935.547	59.5
936.689	60
937.833	59.5
938.975	56
940.119	57.5
941.26	58.5
942.404	55
943.545	56
944.688	54
945.829	58.5
946.971	52
948.112	55
949.253	59
950.394	62.5
951.535	59
952.676	56
953.816	58
954.956	56.5
956.097	60
957.236	59
958.377	54.5
959.516	59
960.655	57.5
961.793	58.5
962.933	57.5
964.071	58
965.21	57
966.349	57.5
967.487	56
968.624	56
969.762	57
970.901	57.5
972.038	57
973.175	59
974.311	61
975.449	58
976.586	54
977.722	56.5
978.858	55.5
979.994	55.5
981.131	54
982.267	60
983.402	63.5
984.537	59
985.672	58.5
986.807	56
987.942	53.5
989.076	58
990.211	54
991.346	52
992.48	54
993.614	57
994.748	56.5
995.881	53
997.014	58.5
998.148	53.5
999.28	61
1000.41	60.5
1001.55	54
1002.68	52.5
1003.81	53.5
1004.94	56
1006.07	53.5
1007.21	55.5
1008.34	64
1009.47	58
1010.6	57
1011.73	54
1012.86	53
1013.99	57.5
1015.12	53
1016.25	58
1017.38	59
1018.51	59
1019.64	55
1020.77	55
1021.9	60
1023.03	55
1024.16	56.5
1025.29	53
1026.42	59.5
1027.54	58
1028.67	60
1029.8	57
1030.93	61
1032.06	54.5
1033.18	57
1034.31	61
1035.44	53
1036.56	56
1037.69	52.5
1038.82	53
1039.94	60
1041.07	59
1042.2	58
1043.32	61
1044.45	61
1045.57	58.5
1046.7	52.5
1047.82	63
1048.95	56
1050.07	59.5
1051.2	57.5
1052.32	60
1053.45	54
1054.57	53
1055.69	61.5
1056.82	55.5
1057.94	57
1059.06	57.5
1060.19	58
1061.31	59.5
1062.43	57
1063.55	58
1064.68	60
1065.8	54.5
1066.92	57
1068.04	56
1069.16	53.5
1070.28	56
1071.41	56
1072.53	59.5
1073.65	60.5
1074.77	59
1075.89	57.5
1077.01	53
1078.13	52.5
1079.25	53.5
1080.37	58
1081.49	56.5
1082.61	59
1083.73	56
1084.85	57.5
1085.96	57
1087.08	59.5
1088.2	54
1089.32	56
1090.44	54.5
1091.56	55.5
1092.67	59
1093.79	54
1094.91	51.5
1096.03	54.5
1097.14	57
1098.26	54
1099.38	51
1100.49	51
1101.61	53.5
1102.73	55
1103.84	53
1104.96	53
1106.07	56
1107.19	57
1108.3	54
1109.42	58.5
1110.53	51.5
1111.65	54.5
1112.76	55.5
1113.88	57.5
1114.99	56.5
1116.1	55.5
1117.22	58.5
1118.33	54
1119.44	58.5
1120.56	53
1121.67	55
1122.78	52
1123.9	50
1125.01	57
1126.12	56.5
1127.23	60
1128.34	52
1129.46	53.5
1130.57	59.5
1131.68	53
1132.79	52
1133.9	55
1135.01	55.5
1136.12	55.5
1137.23	62.5
1138.34	56.5
1139.45	53
1140.56	59.5
1141.67	60.5
1142.78	52.5
1143.89	58.5
1145	56.5
1146.11	50
1147.22	54.5
1148.33	54.5
1149.44	53
1150.54	57
1151.65	55
1152.76	51
1153.87	54.5
1154.97	50.5
1156.08	57
1157.19	55
1158.3	59.5
1159.4	54
1160.51	58
1161.62	53
1162.72	55.5
1163.83	56.5
1164.93	50.5
1166.04	59
1167.15	54.5
1168.25	54
1169.36	51
1170.46	53
1171.57	51
1172.67	54.5
1173.78	52
1174.88	53.5
1175.98	58.5
1177.09	52
1178.19	57
1179.3	55.5
1180.4	57
1181.5	50
1182.61	55
1183.71	51
1184.81	57
1185.91	58
1187.02	54
1188.12	54
1189.22	58
1190.32	56
1191.42	50.5
1192.53	53
1193.63	56
1194.73	54.5019
1195.83	56.4676
1196.93	50.1224
1198.03	57.0784
1199.13	56.8941
1200.23	52.4772
1201.33	54.6857
1202.43	54.0953
1203.53	57.5936
1204.63	55.8934
1205.73	52.1029
1206.83	53.8672
1207.93	54.4312
1209.02	53.4153
1210.12	53.0298
1211.22	50.777
1212.32	54.8963
1213.42	53.8301
1214.52	51.7434
1215.61	54.3922
1216.71	54.5453
1217.81	54.8648
1218.91	53.6688
1220	55.0948
1221.1	53.4845
1222.2	53.5049
1223.29	54.6271
1224.39	54.8735
1225.49	51.6335
1226.58	55.8568
1227.68	51.6415
1228.77	54.252
1229.87	55.1823
1230.96	53.8603
1232.06	58.1888
1233.15	54.4768
1234.25	54.3322
1235.34	52.8322
1236.44	54.8148
1237.53	56.091
1238.63	52.6673
1239.72	55.4021
1240.81	56.0619
1241.91	55.3665
1243	56.4879
1244.09	54.8163
1245.19	56.68
1246.28	55.0804
1247.37	58.4426
1248.46	61.2495
1249.56	57.0545
1250.65	58.7288
1251.74	59.7257
1252.83	61.1964
1253.92	63.4768
1255.01	65.674
1256.11	62.2913
1257.2	68.7279
1258.29	70.4735
1259.38	68.9584
1260.47	72.675
1261.56	70.1118
1262.65	73.4899
1263.74	71.703
1264.83	66.7363
1265.92	70.5443
1267.01	67.6533
1268.1	61.8526
1269.19	63.502
1270.27	60.5242
1271.36	60.3412
1272.45	56.6214
1273.54	56.4225
1274.63	54.7597
1275.72	55.9026
1276.8	56.4688
1277.89	56.3422
1278.98	53.8186
1280.07	56.2865
1281.15	57.1479
1282.24	55.808
1283.33	53.2413
1284.41	56.0067
1285.5	53.0201
1286.59	55.8101
1287.67	54.6119
1288.76	55.434
1289.84	53.8799
1290.93	57.9667
1292.01	54.092
1293.1	55.1731
1294.19	54.5756
1295.27	56.7179
1296.35	52.6535
1297.44	52.8126
1298.52	54.9235
1299.61	57.1374
1300.69	51.5724
1301.78	54.1662
1302.86	54.9853
1303.94	55.2297
1305.03	55.0993
1306.11	53.8956
1306.4	53.5
1307.49	53.5
1308.57	53.5
1309.66	54.5
1310.75	52
1311.84	54.5
1312.92	50
1314.01	59.5
1315.1	50
1316.19	53.5
1317.27	47
1318.36	52
1319.45	54.5
1320.53	57
1321.62	53
1322.7	53
1323.79	50
1324.88	51
1325.96	55
1327.05	53
1328.13	53.5
1329.21	50.5
1330.3	53.5
1331.38	57
1332.47	55
1333.55	55.5
1334.64	53
1335.72	57.5
1336.8	50
1337.89	56.5
1338.97	55.5
1340.05	61.5
1341.14	54.5
1342.22	56
1343.3	56.5
1344.39	55
1345.47	52.5
1346.55	51.5
1347.63	54.5
1348.71	57
1349.79	57
1350.88	51
1351.96	56.5
1353.04	54
1354.12	58.5
1355.2	54
1356.28	56
1357.36	56
1358.44	52
1359.52	57
1360.6	60.5
1361.68	51
1362.76	60.5
1363.84	51.5
1364.92	61.5
1366	53
1367.08	65
1368.16	52.5
1369.23	59
1370.31	50.5
1371.39	62
1372.47	56.5
1373.55	55.5
1374.62	55
1375.7	54
1376.78	62
1377.85	63
1378.93	57.5
1380.01	52.5
1381.09	59
1382.16	54
1383.24	53
1384.31	61.5
1385.39	62.5
1386.47	64
1387.54	62.5
1388.62	67
1389.69	66.5
1390.77	65.5
1391.84	61.5
1392.92	68.5
1393.99	68.5
1395.06	67
1396.14	73
1397.21	77
1398.29	83
1399.36	80.5
1400.43	76.5
1401.51	85.5
1402.58	92.5
1403.65	94
1404.73	95
1405.8	93.5
1406.87	97.5
1407.94	98.5
1409.02	100
1410.09	100
1411.16	98.5
1412.23	101
1413.3	94
1414.37	95
1415.45	98.5
1416.52	93.5
1417.59	89.5
1418.66	94.5
1419.73	81.5
1420.8	75
1421.87	80.5
1422.94	72
1424.01	80
1425.08	75.5
1426.15	70.5
1427.22	70
1428.29	64
1429.35	66.5
1430.42	64
1431.49	64
1432.56	67
1433.63	63.5
1434.7	64
1435.77	62
1436.83	54.5
1437.9	66.5
1438.97	58.5
1440.04	61
1441.1	55.5
1442.17	68
1443.24	65.5
1444.3	59.5
1445.37	63
1446.44	62
1447.5	59
1448.57	60
1449.63	65
1450.7	58
1451.76	60
1452.83	56.5
1453.89	58
1454.96	59
1456.02	56
1457.09	59.5
1458.15	59
1459.22	58.5
1460.28	55
1461.34	57
1462.41	56.5
1463.47	52.5
1464.54	58.5
1465.6	58.5
1466.66	57.5
1467.72	60
1468.79	53
1469.85	53
1470.91	57
1471.97	56
1473.04	62.5
1474.1	65
1475.16	56
1476.22	62
1477.28	52
1478.34	54
1479.4	54.5
1480.47	63
1481.53	61
1482.59	59
1483.65	55
1484.71	57.5
1485.77	55
1486.83	58.5
1487.89	59.5
1488.95	58
1490.01	58.5
1491.07	57
1492.12	59.5
1493.18	59
1494.24	56
1495.3	54
1496.36	60.5
1497.42	57
1498.47	61.5
1499.53	56
1500.59	53.5
1501.65	61.5
1502.7	54.5
1503.76	55
1504.82	58
1505.88	57
1506.93	59.5
1507.99	59.5
1509.05	55
1510.1	58.5
1511.16	54.5
1512.21	53
1513.27	53
1514.32	59
1515.38	51.5
1516.43	55.5
1517.49	56
1518.54	51
1519.6	60.5
1520.65	58
1521.71	60
1522.76	56
1523.82	57
1524.87	56.5
1525.92	56
1526.98	58.5
1528.03	58.5
1529.08	50.5
1530.14	56.5
1531.19	63.5
1532.24	57
1533.3	57.5
1534.35	56.5
1535.4	57.5
1536.45	58
1537.5	56.5
1538.56	54
1539.61	57
1540.66	59
1541.71	54.5
1542.76	50.5
1543.81	52
1544.86	51
1545.91	52
1546.96	52
1548.01	57
1549.06	58.5
1550.11	56.5
1551.16	53
1552.21	52.5
1553.26	50.5
1554.31	55.5
1555.36	57.5
1556.41	57
1557.46	59
1558.51	58.5
1559.55	58
1560.6	50
1561.65	55
1562.7	59
1563.75	51
1564.79	55.5
1565.84	49
1566.89	52
1567.94	59
1568.98	53
1570.03	62.5
1571.07	52.5
1572.12	55.5
1573.17	57
1574.21	53
1575.26	54.5
1576.31	54.5
1577.35	52.5
1578.4	51
1579.44	52
1580.49	54
1581.53	52
1582.58	55
1583.62	51
1584.67	59
1585.71	56.5
1586.75	51
1587.8	57
1588.84	52
1589.89	51
1590.93	48
1591.97	55
1593.02	50
1594.06	52
1595.1	51
1596.14	55
1597.19	49.5
1598.23	60.5
1599.27	54.5
1600.31	52.5
1601.35	52
1602.4	52.5
1603.44	50
1604.48	50
1605.52	56.5
1606.56	52
1607.6	54.5
1608.64	51
1609.68	52.5
1610.72	55
1611.76	55
1612.8	51
1613.84	52
1614.88	51
1615.92	50.5
1616.96	53.5
1618	48
1619.04	54.5
1620.08	48
1621.12	50.5
1622.16	45.5
1623.19	52.5
1624.23	52
1625.27	51
1626.31	45.5
1627.35	53
1628.38	49.5
1629.42	50
1630.46	51.5
1631.5	52.5
1632.53	49.5
1633.57	51.5
1634.61	50
1635.64	44
1636.68	51
1637.71	53
1638.75	55
1639.79	50
1640.82	48.5
1641.86	54
1642.89	48
1643.93	51.5
1644.96	50.5
1646	49
1647.03	56
1648.07	52.5
1649.1	50.5
1650.14	54
1651.17	48
1652.2	47
1653.24	47
1654.27	46
1655.3	49
1656.34	51.5
1657.37	49.5
1658.4	54.5
1659.44	45.5
1660.47	45
1661.5	50.5
1662.53	48.5
1663.57	49.5
1664.6	51
1665.63	45.5
1666.66	47
1667.69	46
1668.72	52
1669.75	52
1670.79	51.5
1671.82	52.5
1672.85	47.5
1673.88	53
1674.91	54
1675.94	53
1676.97	48
1678	46
1679.03	48
1680.06	51
1681.09	49
1682.11	48
1683.14	53
1684.17	48
1685.2	49.5
1686.23	44
1687.26	47.5
1688.29	46
1689.32	52
1690.34	53.5
1691.37	50.5
1692.4	44
1693.43	48
1694.45	51
1695.48	45.5
1696.51	49.5
1697.53	49
1698.56	54
1699.59	46
1700.61	44.5
1701.64	45
1702.66	51
1703.69	48
1704.72	44
1705.74	49.5
1706.77	48.5
1707.79	46
1708.82	47
1709.84	46
1710.87	48.5
1711.89	48
1712.92	48
1713.94	51.5
1714.96	49
1715.99	47
1717.01	50.5
1718.04	51
1719.06	45.5
1720.08	45.5
1721.11	49
1722.13	53
1723.15	46
1724.17	46.5
1725.2	47.5
1726.22	48
1727.24	45.5
1728.26	51.5
1729.28	45.5
1730.31	46
1731.33	43
1732.35	48
1733.37	51.5
1734.39	45
1735.41	46
1736.43	48
1737.45	52
1738.47	47
1739.49	47.5
1740.51	50.5
1741.53	47.5
1742.55	49.5
1743.57	45.5
1744.59	46.5
1745.61	50
1746.63	44.5
1747.65	43.5
1748.67	47
1749.69	50
1750.71	48.5
1751.72	47
1752.74	55
1753.76	43.5
1754.78	51.5
1755.8	49
1756.81	48
1757.83	50
1758.85	47
1759.86	45
1760.88	43
1761.9	45
1762.91	46.5
1763.93	50.5
1764.95	50.5
1765.96	48.5
1766.98	48
1768	48.5
1769.01	46.5
1770.03	49
1771.04	46
1772.06	51
1773.07	48
1774.09	48
1775.1	46.5
1776.12	51.5
1777.13	46.5
1778.14	49.5
1779.16	45
1780.17	50.5
1781.19	40
1782.2	42
1783.21	48
1784.23	46.5
1785.24	44
1786.25	45
1787.27	51
1788.28	51.5
1789.29	42.5
1790.3	46
1791.32	46
1792.33	45.5
1793.34	48
1794.35	47.5
1795.36	49
1796.37	46
1797.38	47.5
1798.4	46
1799.41	49.5
1800.42	41.5
1801.43	42
1802.44	45
1803.45	49.5
1804.46	45.5
1805.47	43
1806.48	43.5
1807.49	44.5
1808.5	39
1809.51	49.5
1810.52	45.5
1811.53	46
1812.53	46
1813.54	46.5
1814.55	49.5
1815.56	44.5
1816.57	47
1817.58	47
1818.58	49
1819.59	49
1820.6	41.5
1821.61	48
1822.61	44.5
1823.62	44
1824.63	47
1825.64	46
1826.64	48
1827.65	43.5
1828.66	50
1829.66	44
1830.67	44.5
1831.67	43
1832.68	44
1833.68	46
1834.69	46.5
1835.7	44
1836.7	48
1837.71	46.5
1838.71	44
1839.71	44.5
1840.72	45
1841.72	46
1842.73	44
1843.73	48.5
1844.74	46
1845.74	46
1846.74	48
1847.75	49
1848.75	48
1849.75	47.5
1850.76	52
1851.76	50
1852.76	44
1853.76	43
1854.77	46
1855.77	47
1856.77	43
1857.77	44
1858.77	44.5
1859.78	43.5
1860.78	42.5
1861.78	44
1862.78	45.5
1863.78	43
1864.78	48
1865.78	49.5
1866.78	43
1867.78	50
1868.78	45
1869.78	43.5
1870.78	46.5
1871.78	46
1872.78	44
1873.78	37
1874.78	44.5
1875.78	47
1876.78	40.5
1877.78	41.5
1878.78	42.5
1879.77	44
1880.77	41.5
1881.77	44
1882.77	49
1883.77	45.5
1884.76	42.5
1885.76	45
1886.76	41.5
1887.76	41
1888.75	41.5
1889.75	46.5
1890.75	41.5
1891.74	43.5
1892.74	41
1893.74	45
1894.73	43
1895.73	40
1896.72	44.5
1897.72	46
1898.72	48
1899.71	40
1900.71	46.5
1901.7	47
1902.7	47
1903.69	45.5
1904.69	51
1905.68	42
1906.67	49
1907.67	48.5
1908.66	47.5
1909.66	45
1910.65	42.5
1911.64	41.5
1912.64	40.5
1913.63	45
1914.62	43
1915.62	43
1916.61	45
1917.6	45
1918.59	40.5
1919.59	43
1920.58	41
1921.57	46
1922.56	43.5
1923.55	43.5
1924.55	43.5
1925.54	37.5
1926.53	50
1927.52	41
1928.51	44.5
1929.5	46.5
1930.49	40
1931.48	44
1932.47	38
1933.46	46
1934.45	41
1935.44	41
1936.43	45.5
1937.42	47
1938.41	47
1939.4	41.5
1940.39	43
1941.38	44
1942.37	44.5
1943.36	44
1944.34	40.5
1945.33	41
1946.32	44
1947.31	42
1948.3	43
1949.28	42.5
1950.27	46
1951.26	43
1952.25	43.5
1953.23	45
1954.22	45.5
1955.21	48
1956.2	44
1957.18	45.5
1958.17	42
1959.15	43.5
1960.14	42
1961.13	45
1962.11	44.5
1963.1	43
1964.08	39
1965.07	46
1966.05	43.5
1967.04	45
1968.02	45
1969.01	42.5
1969.99	45.5
1970.98	43
1971.96	45
1972.94	43
1973.93	41.5
1974.91	43
1975.9	43
1976.88	41.5
1977.86	41.5
1978.85	48
1979.83	37
1980.81	43
1981.8	40.5
1982.78	43
1983.76	45.5
1984.74	40
1985.72	41
1986.71	49.5
1987.69	41.5
1988.67	37.5
1989.65	40
1990.63	44
1991.61	44.5
1992.6	41
1993.58	44
1994.56	45
1995.54	45.5
1996.52	43
1997.5	42.5
1998.48	43.5
1999.46	40
2000.44	45.5
2001.42	38.5
2002.4	39
2003.38	42
2004.36	42.5
2005.34	39.5
2006.32	36
2007.29	41
2008.27	43.5
2009.25	43.5
2010.23	45.5
2011.21	43
2012.19	44.5
2013.16	39.5
2014.14	43
2015.12	45
2016.1	37.5
2017.07	44
2018.05	37
2019.03	42
2020	40.5
2020.98	39.5
2021.96	44
2022.93	42.5
2023.91	43.5
2024.89	42
2025.86	41
2026.84	44
2027.81	39.5
2028.79	41.5
2029.77	44
2030.74	43.5
2031.72	48
2032.69	42.5
2033.67	40.5
2034.64	41
2035.61	41.5
2036.59	45.5
2037.56	39.5
2038.54	40.5
2039.51	45
2040.48	41.5
2041.46	40.5
2042.43	41
2043.41	41.5
2044.38	40
2045.35	45
2046.32	43
2047.3	41.5
2048.27	38.5
2049.24	40.5
2050.21	41.5
2051.19	41
2052.16	42
2053.13	42
2054.1	41
2055.07	41.5
2056.04	38.5
2057.02	40
2057.99	38
2058.96	42.5
2059.93	37
2060.9	42
2061.87	41
2062.84	40
2063.81	44
2064.78	42.5
2065.75	40
2066.72	41.5
2067.69	37.5
2068.66	41
2069.63	43.5
2070.6	42.5
2071.57	39.5
2072.53	40.5
2073.5	39
2074.47	43.5
2075.44	43
2076.41	37
2077.38	41
2078.34	40.5
2079.31	45
2080.28	45.5
2081.25	41
2082.21	42
2083.18	39
2084.15	42.5
2085.12	42.5
2086.08	38.5
2087.05	40
2088.02	34
2088.98	38.5
2089.95	39.5
2090.91	38.5
2091.88	41
2092.85	46
2093.81	41
2094.78	40
2095.74	42
2096.71	37
2097.67	41
2098.64	41
2099.6	45
2100.57	45
2101.53	38
2102.5	41.5
2103.46	41
2104.42	39
2105.39	39
2106.35	39.5
2107.31	41
2108.28	43
2109.24	39
2110.2	45
2111.17	38.5
2112.13	38.5
2113.09	41
2114.06	41
2115.02	41
2115.98	39
2116.94	42
2117.9	37
2118.86	39.5
2119.83	47.5
2120.79	40
2121.75	41.5
2122.71	40
2123.67	39
2124.63	37.5
2125.59	41.5
2126.55	40.5
2127.51	38.5
2128.48	36
2129.43	38.5
2130.4	40
2131.35	39
2132.31	34.5
2133.27	45
2134.23	40.5
2135.19	42
2136.15	44.5
2137.11	39
2138.07	41.5
2139.03	41
2139.99	39
2140.95	37
2141.9	43.5
2142.86	45.9745
2143.82	39.5166
2144.78	34.2478
2145.74	39.1188
2146.69	40.0124
2147.65	42.8487
2148.61	40.8279
2149.56	43.6749
2150.52	37.276
2151.48	42.6205
2152.44	41.2567
2153.39	40.5946
2154.35	38.5643
2155.3	41.0441
2156.26	37.9575
2157.22	41.024
2158.17	38.8751
2159.13	39.0103
2160.08	40.9894
2161.04	40.2035
2161.99	39.5437
2162.95	36.2888
2163.9	37.9369
2164.86	34.8689
2165.81	39.565
2166.77	42.5295
2167.72	38.4213
2168.68	39.3092
2169.63	38.6127
2170.58	38.727
2171.54	38.4916
2172.49	37.156
2173.44	38.0906
2174.4	37.5144
2175.35	38.5623
2176.3	41.7549
2177.26	39.9164
2178.21	39.678
2179.16	40.6895
2180.11	35.8018
2181.07	38.1938
2182.02	37.3763
2182.97	39.5619
2183.92	38.733
2184.88	37.6914
2185.83	39.8246
2186.78	35.5966
2187.73	39.894
2188.68	39.4709
2189.63	39.1686
2190.58	36.4343
2191.53	37.8287
2192.48	38.7845
2193.43	39.0226
2194.38	40.3757
2195.33	38.9223
2196.28	39.344
2197.23	35.7065
2198.18	40.5626
2199.13	38.9401
2200.08	38.8266
2201.03	34.9045
2201.98	40.4641
2202.93	37.3571
2203.88	36.7864
2204.83	40.3299
2205.78	36.2809
2206.72	36.1532
2207.67	37.4287
2208.62	37.5083
2209.57	37.3157
2210.52	40.2806
2211.46	40.2143
2212.41	38.9572
2213.36	39.6971
2214.31	39.6409
2215.25	36.6178
2216.2	40.052
2217.15	40.441
2218.09	39.984
2219.04	37.407
2219.99	37.2737
2220.93	39.4394
2221.88	38.9995
2222.83	38.4476
2223.77	40.1795
2224.72	36.6239
2225.66	39.1565
2226.61	38.6553
2227.55	40.606
2228.5	38.9042
2229.44	37.904
2230.39	37.9154
2231.33	37.3331
2232.28	39.1352
2233.22	38.4355
2234.17	38.475
2235.11	38.9092
2236.05	40.8309
2237	39.3557
2237.94	39.4104
2238.88	37.8275
2239.83	38.2709
2240.04	38.5
2240.98	40
2241.93	39.5
2242.88	37
2243.83	35.5
2244.78	37
2245.72	41
2246.67	36.5
2247.62	40
2248.56	40
2249.51	39.5
2250.46	36
2251.4	39.5
2252.35	38
2253.3	38
2254.24	42
2255.19	35
2256.14	36
2257.08	40.5
2258.03	34.5
2258.97	36
2259.92	38.5
2260.86	37.5
2261.81	37.5
2262.75	36
2263.7	35
2264.64	37.5
2265.59	36
2266.53	37.5
2267.48	42
2268.42	37.5
2269.36	41.5
2270.31	47
2271.25	32
2272.19	35
2273.14	35.5
2274.08	38
2275.02	38
2275.97	39
2276.91	35
2277.85	40
2278.8	34
2279.74	39
2280.68	36.5
2281.62	37
2282.56	37.5
2283.51	41.5
2284.45	37.5
2285.39	38.5
2286.33	37.5
2287.27	38.5
2288.21	38
2289.15	37
2290.09	41
2291.04	39
2291.98	32
2292.92	35
2293.86	38.5
2294.8	34
2295.74	41
2296.68	36
2297.62	39
2298.56	36.5
2299.5	38
2300.44	37.5
2301.37	36
2302.31	38.5
2303.25	37.5
2304.19	35
2305.13	36.5
2306.07	43
2307.01	38.5
2307.94	34
2308.88	38
2309.82	38
2310.76	40.5
2311.7	42.5
2312.63	41.5
2313.57	34
2314.51	34.5
2315.44	40
2316.38	38.5
2317.32	35
2318.26	38
2319.19	43.5
2320.13	40.5
2321.06	38
2322	39.5
2322.94	38.5
2323.87	38.5
2324.81	42.5
2325.74	36
2326.68	40
2327.61	38
2328.55	39
2329.48	40.5
2330.42	35.5
2331.35	32
2332.29	35
2333.22	39
2334.16	40
2335.09	35
2336.02	39.5
2336.96	38.5
2337.89	35
2338.83	37.5
2339.76	35
2340.69	38
2341.63	40.5
2342.56	38.5
2343.49	37.5
2344.42	36
2345.36	36.5
2346.29	37.5
2347.22	40
2348.15	33
2349.09	40
2350.02	38.5
2350.95	39.5
2351.88	40.5
2352.81	37.5
2353.74	41
2354.68	37
2355.61	37
2356.54	34
2357.47	37
2358.4	38.5
2359.33	43
2360.26	36
2361.19	35.5
2362.12	37.5
2363.05	40.5
2363.98	33.5
2364.91	35
2365.84	39
2366.77	36
2367.7	42
2368.63	33
2369.56	35.5
2370.49	37.5
2371.41	36.5
2372.34	41
2373.27	35.5
2374.2	36.5
2375.13	38
2376.06	37.5
2376.98	37
2377.91	41.5
2378.84	37.5
2379.77	36
2380.69	39.5
2381.62	36.5
2382.55	34
2383.47	41
2384.4	35.5
2385.33	37.5
2386.25	37.5
2387.18	39.5
2388.11	38
2389.03	38
2389.96	39.5
2390.89	37.5
2391.81	39.5
2392.74	34.5
2393.66	39
2394.59	39.5
2395.51	41
2396.44	40.5
2397.36	38
2398.29	40.5
2399.21	41.5
2400.14	41
2401.06	35.5
2401.99	42.5
2402.91	34.5
2403.83	35
2404.76	35.5
2405.68	42.5
2406.6	41
2407.53	35.5
2408.45	39
2409.37	36.5
2410.3	41
2411.22	35.5
2412.14	35
2413.06	39
2413.99	36
2414.91	38.5
2415.83	36.5
2416.75	39
2417.68	42
2418.6	36
2419.52	34.5
2420.44	40
2421.36	38
2422.28	36
2423.2	38
2424.12	39
2425.05	34
2425.97	38
2426.89	38
2427.81	35
2428.73	40
2429.65	40
2430.57	39
2431.49	40.5
2432.41	38
2433.33	37.5
2434.25	37
2435.17	36
2436.08	34
2437	43.5
2437.92	35
2438.84	39.5
2439.76	40
2440.68	39
2441.6	40
2442.51	37
2443.43	36.5
2444.35	41.5
2445.27	37.5
2446.19	39
2447.1	39
2448.02	37
2448.94	37.5
2449.85	35
2450.77	35.5
2451.69	36
2452.61	35.5
2453.52	40
2454.44	37
2455.35	35
2456.27	38.5
2457.19	35.5
2458.1	33
2459.02	39.5
2459.94	42
2460.85	37
2461.77	37.5
2462.68	40.5
2463.6	39.5
2464.51	39
2465.43	41.5
2466.34	40.5
2467.25	36
2468.17	40.5
2469.08	38.5
2470	32.5
2470.91	36
2471.83	37
2472.74	36.5
2473.65	36
2474.57	32
2475.48	36.5
2476.39	39.5
2477.31	40
2478.22	36.5
2479.13	38
2480.04	36
2480.96	40
2481.87	39.5
2482.78	43
2483.69	36
2484.6	40
2485.52	40.5
2486.43	36.5
2487.34	35
2488.25	37.5
2489.16	42
2490.07	40
2490.99	39.5
2491.9	40.5
2492.81	40
2493.72	41.5
2494.63	39
2495.54	37.5
2496.45	41
2497.36	41.5
2498.27	43
2499.18	39
2500.09	37
2501	41.5
2501.91	43.5
2502.82	44.5
2503.73	42.5
2504.63	38.5
2505.54	40
2506.45	47
2507.36	37.5
2508.27	38
2509.18	36
2510.09	40
2510.99	36
2511.9	37
2512.81	35.5
2513.72	42
2514.62	38
2515.53	36.5
2516.44	39.5
2517.35	37.5
2518.25	40
2519.16	35
2520.07	37
2520.97	39
2521.88	37
2522.79	35.5
2523.69	40.5
2524.6	39
2525.51	39
2526.41	37.5
2527.32	36
2528.22	40
2529.13	42.5
2530.03	39
2530.94	34.5
2531.84	38
2532.75	37.5
2533.65	35
2534.56	38
2535.46	34
2536.37	38.5
2537.27	39.5
2538.17	39
2539.08	33.5
2539.98	35.5
2540.89	38
2541.79	37.5
2542.69	41
2543.6	31
2544.5	36
2545.4	38
2546.31	41
2547.21	34
2548.11	37
2549.01	38
2549.92	36
2550.82	36.5
2551.72	36
2552.62	38
2553.52	38
2554.42	37
2555.33	35.5
2556.23	37.5
2557.13	36.5
2558.03	39.5
2558.93	40
2559.83	39
2560.73	37
2561.63	38.5
2562.53	39
2563.43	44
2564.33	36
2565.24	35.5
2566.13	36
2567.04	38
2567.93	37
2568.83	36.5
2569.73	35
2570.63	37
2571.53	37
2572.43	37.5
2573.33	37
2574.23	39.5
2575.13	35
2576.03	34
2576.92	38
2577.82	37.5
2578.72	37.5
2579.62	37
2580.52	34.5
2581.41	33.5
2582.31	32
2583.21	40
2584.11	36.5
2585	34
2585.9	38.5
2586.8	33
2587.69	33.5
2588.59	36
2589.49	39
2590.38	37.5
2591.28	35.5
2592.18	37.5
2593.07	36
2593.97	33.5
2594.86	35
2595.76	40
2596.66	30
2597.55	36.5
2598.45	40
2599.34	41
2600.24	29
2601.13	37
2602.03	31
2602.92	40
2603.81	37.5
2604.71	33
2605.6	37.5
2606.5	40
2607.39	38
2608.28	36.5
2609.18	31
2610.07	30.5
2610.97	35.5
2611.86	37.5
2612.75	34.5
2613.64	37.5
2614.54	36.5
2615.43	34.5
2616.32	38
2617.22	39
2618.11	30.5
2619	35
2619.89	37.5
2620.78	37
2621.68	40
2622.57	38.5
2623.46	40
2624.35	38
2625.24	34
2626.13	35.5
2627.02	31
2627.91	36.5
2628.81	38
2629.7	33.5
2630.59	36.5
2631.48	38
2632.37	36.5
2633.26	38.5
2634.15	32.5
2635.04	37.5
2635.93	35.5
2636.82	37.5
2637.71	38.5
2638.59	36
2639.48	38
2640.37	32
2641.26	37.5
2642.15	32.5
2643.04	34
2643.93	34.5
2644.82	33.5
2645.71	38.5
2646.59	36.5
2647.48	39.5
2648.37	36.5
2649.26	35
2650.15	40.5
2651.03	36.5
2651.92	36
2652.81	38.5
2653.69	34
2654.58	39
2655.47	38.5
2656.35	38
2657.24	36.5
2658.13	37
2659.01	38
2659.9	34
2660.79	36
2661.67	35
2662.56	34
2663.44	34
2664.33	34.5
2665.22	38
2666.1	38
2666.99	41
2667.87	41.5
2668.76	36.5
2669.64	37
2670.52	39
2671.41	35
2672.29	37.5
2673.18	34.5
2674.06	33
2674.95	35
2675.83	35
2676.71	42
2677.6	38
2678.48	37.5
2679.36	36.5
2680.25	34.5
2681.13	37
2682.01	40.5
2682.9	34
2683.78	40.5
2684.66	30.5
2685.55	34
2686.43	38.5
2687.31	41
2688.19	40.5
2689.07	39.5
2689.96	33
2690.84	34
2691.72	37.5
2692.6	38
2693.48	31.5
2694.36	34
2695.24	37.5
2696.12	36
2697	34.5
2697.89	38.5
2698.77	38.5
2699.65	37.5
2700.53	36.5
2701.41	31.5
2702.29	34
2703.17	34
2704.05	35.5
2704.93	35.5
2705.81	36.5
2706.69	35.5
2707.57	40
2708.44	36.5
2709.32	36
2710.2	35.5
2711.08	37.5
2711.96	38
2712.84	33
2713.72	33.5
2714.59	36.5
2715.47	32
2716.35	34.5
2717.23	34
2718.11	42
2718.98	39
2719.86	38
2720.74	35.5
2721.62	38
2722.49	34.5
2723.37	36
2724.25	39.5
2725.12	33
2726	34
2726.88	37
2727.75	37.5
2728.63	39
2729.51	40.5
2730.38	38
2731.26	35
2732.13	35
2733.01	37
2733.88	36
2734.76	36.5
2735.63	38
2736.51	43
2737.38	36
2738.26	37.5
2739.13	40
2740.01	40
2740.88	36
2741.76	37.5
2742.63	36.5
2743.5	33
2744.38	36
2745.25	36
2746.13	39
2747	35
2747.87	33.5
2748.75	37.5
2749.62	39
2750.49	34.5
2751.36	35.5
2752.24	34
2753.11	40
2753.98	37
2754.86	40
2755.73	34
2756.6	34
2757.47	34
2758.34	39
2759.22	37.5
2760.09	40
2760.96	37
2761.83	38
2762.7	39
2763.57	35
2764.44	38.5
2765.31	35
2766.18	43.5
2767.06	43
2767.93	35
2768.8	38
2769.67	40
2770.54	36.5
2771.41	36
2772.28	40
2773.15	40
2774.02	46.5
2774.89	42.5
2775.75	40.5
2776.62	40
2777.49	43
2778.36	43
2779.23	41
2780.1	41.5
2780.97	43
2781.84	47.5
2782.71	49.5
2783.57	46.5
2784.44	46.5
2785.31	52
2786.18	50
2787.04	44.5
2787.91	46
2788.78	47.5
2789.65	45
2790.51	47
2791.38	54
2792.25	53.5
2793.12	52.5
2793.98	57
2794.85	54.5
2795.72	54.5
2796.58	55.5
2797.45	55
2798.31	55
2799.18	53.5
2800.05	59
2800.91	58
2801.78	56.5
2802.64	53.5
2803.51	56.5
2804.37	54
2805.24	55
2806.1	53
2806.97	54.5
2807.83	59.5
2808.7	52.5
2809.56	54.5
2810.43	53
2811.29	53
2812.15	53
2813.02	54
2813.88	57
2814.75	59.5
2815.61	51
2816.47	59
2817.34	55.5
2818.2	52
2819.06	49
2819.92	51
2820.79	56.5
2821.65	48
2822.51	54
2823.37	55
2824.24	52.5
2825.1	51
2825.96	51.5
2826.82	50.5
2827.69	57
2828.55	53
2829.41	51
2830.27	52
2831.13	55.5
2831.99	51.5
2832.85	54
2833.71	53
2834.58	54
2835.44	50
2836.3	52
2837.16	53
2838.02	56
2838.88	51.5
2839.74	58.5
2840.6	57.5
2841.46	56
2842.32	50
2843.18	57.5
2844.04	57
2844.9	53.5
2845.75	56
2846.61	59.5
2847.47	56.5
2848.33	53.5
2849.19	54
2850.05	55
2850.91	52
2851.77	57
2852.62	57
2853.48	55
2854.34	62
2855.2	57.5
2856.06	62
2856.91	61
2857.77	59.5
2858.63	60.5
2859.48	57
2860.34	61
2861.2	61.5
2862.06	60.5
2862.91	65
2863.77	61
2864.63	66
2865.48	71.5
2866.34	70
2867.19	69
2868.05	74.5
2868.91	73.5
2869.76	69.5
2870.62	81
2871.47	85
2872.33	83
2873.18	91
2874.04	90
2874.89	90.5
2875.75	85
2876.6	96
2877.46	95
2878.31	102.5
2879.17	102
2880.02	108
2880.88	110.5
2881.73	118
2882.58	121.5
2883.44	131
2884.29	130.5
2885.14	134
2886	138.5
2886.85	144.5
2887.7	148
2888.56	157.5
2889.41	162
2890.26	169
2891.12	192
2891.97	202
2892.82	215
2893.67	228
2894.52	241
2895.38	259
2896.23	277.5
2897.08	304
2897.93	326
2898.78	338.5
2899.64	367.5
2900.49	394
2901.34	412.5
2902.19	442
2903.04	456
2903.89	475.5
2904.74	485
2905.59	503
2906.44	487
2907.29	498
2908.14	488
2908.99	480
2909.84	457.5
2910.69	428.5
2911.54	406.5
2912.39	383.5
2913.24	341.5
2914.09	305
2914.94	309.5
2915.79	271
2916.64	244
2917.49	227
2918.34	216
2919.18	196.5
2920.03	182
2920.88	171.5
2921.73	158
2922.58	153
2923.42	141
2924.27	139.5
2925.12	125
2925.97	122.5
2926.82	113
2927.66	114.5
2928.51	105.5
2929.36	106.5
2930.2	98.5
2931.05	103.5
2931.9	91
2932.74	91
2933.59	87
2934.44	86
2935.28	84
2936.13	87.5
2936.98	81.5
2937.82	77.5
2938.67	86
2939.51	85.5
2940.36	85
2941.2	84
2942.05	76
2942.9	80
2943.74	79
2944.58	86.5
2945.43	80.5
2946.27	84.5
2947.12	91
2947.96	91.5
2948.81	89.5
2949.65	94.5
2950.5	96
2951.34	104.5
2952.18	104.5
2953.03	116.5
2953.87	115
2954.71	122.5
2955.56	121
2956.4	137
2957.24	144.5
2958.09	161.5
2958.93	176
2959.77	175
2960.62	188.5
2961.46	194.5
2962.3	214
2963.14	214
2963.98	228
2964.83	223.5
2965.67	223
2966.51	230
2967.35	220
2968.19	213.5
2969.04	205.5
2969.88	211
2970.72	188
2971.56	182.447
2972.4	182.743
2973.24	166.838
2974.08	168.042
2974.92	150.601
2975.76	138.14
2976.6	139.827
2977.44	130.293
2978.28	118.459
2979.12	121.326
2979.96	108.13
2980.8	108.066
2981.64	95.306
2982.48	94.9991
2983.32	89.2774
2984.16	84.6156
2985	77.9422
2985.84	78.1505
2986.68	74.6083
2987.52	75.224
2988.35	74.021
2989.19	66.8115
2990.03	59.1234
2990.87	63.7362
2991.71	63.716
2992.55	61.1267
2993.38	63.4363
2994.22	60.2733
2995.06	58.9569
2995.9	60.196
2996.73	57.6212
2997.57	54.0192
2998.41	53.9055
2999.25	53.1364
3000.08	49.0175
3000.92	49.2217
3001.76	50.1413
3002.59	48.0615
3003.43	49.1955
3004.27	47.8333
3005.1	46.4525
3005.94	50.7884
3006.78	43.9534
3007.61	46.9407
3008.45	45.4111
3009.28	46.7894
3010.12	43.0801
3010.95	43.1214
3011.79	46.988
3012.62	45.0366
3013.46	42.5431
3014.29	43.6986
3015.13	43.7182
3015.96	43.6764
3016.8	41.5915
3017.63	40.5342
3018.47	44.9428
3019.3	40.4401
3020.14	37.7781
3020.97	41.9376
3021.8	39.7109
3022.64	39.9247
3023.47	38.8001
3024.3	39.0275
3025.14	41.2509
3025.97	40.6106
3026.8	40.5134
3027.64	41.4784
3028.47	40.3728
3029.3	38.2571
3030.14	36.82
3030.97	38.0793
3031.8	41.5263
3032.63	39.904
3033.46	37.1142
3034.3	36.801
3035.13	37.66
3035.96	38.203
3036.79	36.9191
3037.62	37.687
3038.46	36.7203
3039.29	37.2901
3040.12	35.4033
3040.95	34.6251
3041.78	37.2514
3042.61	36.8608
3043.44	38.841
3044.27	35.306
3045.1	38.525
3045.93	36.9121
3046.76	36.1654
3047.59	35.6721
3048.42	35.3671
3049.25	37.0429
3050.08	38.1238
3050.91	39.07
3051.74	40.9011
3052.57	41.6071
3053.4	39.4752
3054.23	36.2884
3055.06	36.4894
3055.89	39.3988
3056.72	38.282
3057.32	39
3058.15	37.5
3058.98	37
3059.82	32.5
3060.65	36.5
3061.48	36
3062.31	39.5
3063.15	35.5
3063.98	34.5
3064.81	39
3065.64	39
3066.48	38
3067.31	33.5
3068.14	37.5
3068.97	35
3069.8	37
3070.63	38.5
3071.47	39
3072.3	35
3073.13	39.5
3073.96	31
3074.79	36
3075.62	35.5
3076.45	33.5
3077.28	32
3078.11	37.5
3078.94	33
3079.77	33
3080.6	34
3081.43	36
3082.26	37.5
3083.09	39
3083.92	36.5
3084.75	44.5
3085.58	36
3086.41	36
3087.24	35.5
3088.07	40
3088.9	40
3089.73	39
3090.55	36.5
3091.38	37
3092.21	38
3093.04	37.5
3093.87	40
3094.7	39
3095.52	39
3096.35	40
3097.18	36.5
3098.01	38.5
3098.84	33.5
3099.66	35.5
3100.49	45
3101.32	36.5
3102.14	38.5
3102.97	31
3103.8	30
3104.62	40
3105.45	40.5
3106.28	37
3107.1	38.5
3107.93	37
3108.76	37
3109.58	37
3110.41	40
3111.23	37.5
3112.06	36
3112.89	34.5
3113.71	36
3114.54	40.5
3115.36	38.5
3116.19	37
3117.01	37
3117.84	38.5
3118.66	40.5
3119.49	38
3120.31	40
3121.13	37
3121.96	32
3122.78	36.5
3123.61	35.5
3124.43	35
3125.25	38
3126.08	34
3126.9	44
3127.73	35
3128.55	40
3129.37	36
3130.19	36
3131.02	34
3131.84	37.5
3132.66	33
3133.49	37.5
3134.31	35
3135.13	36.5
3135.95	34.5
3136.78	38
3137.6	34.5
3138.42	35
3139.24	37.5
3140.06	35.5
3140.88	34
3141.71	38
3142.53	35
3143.35	33
3144.17	35
3144.99	32.5
3145.81	33
3146.63	33
3147.45	35.5
3148.27	40
3149.09	33.5
3149.91	33.5
3150.73	34.5
3151.56	35.5
3152.37	34
3153.2	38
3154.01	33.5
3154.83	31.5
3155.65	33.5
3156.47	36.5
3157.29	35
3158.11	31.5
3158.93	33.5
3159.75	34
3160.57	34
3161.39	36
3162.21	35.5
3163.02	33.5
3163.84	34.5
3164.66	31.5
3165.48	36
3166.3	35.5
3167.11	35.5
3167.93	33
3168.75	28.5
3169.57	33.5
3170.39	34
3171.2	31
3172.02	32.5
3172.84	34
3173.65	31
3174.47	35.5
3175.29	37
3176.1	32
3176.92	35.5
3177.74	32
3178.55	33.5
3179.37	33.5
3180.19	31.5
3181	29.5
3181.82	30.5
3182.63	32
3183.45	31.5
3184.27	29.5
3185.08	32
3185.9	33.5
3186.71	34.5
3187.53	35
3188.34	31
3189.16	32.5
3189.97	31
3190.79	33
3191.6	31.5
3192.41	34
3193.23	30.5
3194.04	33
3194.86	30.5
3195.67	33
3196.48	32
3197.3	33.5
3198.11	29
3198.93	29.5
3199.74	32.5
3200.55	32
3201.36	30
3202.18	29.5
3202.99	35.5
3203.8	29.5
3204.62	31
3205.43	36
3206.24	32.5
3207.05	29.5
3207.87	29
3208.68	27.5
3209.49	31
3210.3	33
3211.11	32
3211.93	31
3212.74	31
3213.55	28.5
3214.36	32
3215.17	33
3215.98	30
3216.79	30
3217.6	32
3218.41	34
3219.22	33
3220.03	30
3220.85	30.5
3221.66	30
3222.47	33.5
3223.28	36.5
3224.09	32
3224.9	30
3225.71	34.5
3226.52	31
3227.33	32
3228.13	31.5
3228.94	31.5
3229.75	30
3230.56	31
3231.37	30.5
3232.18	30
3232.99	32.5
3233.8	32.5
3234.61	34
3235.41	30.5
3236.22	32
3237.03	31
3237.84	30.5
3238.65	31.5
3239.45	31
3240.26	30
3241.07	31.5
3241.88	30
3242.68	32.5
3243.49	28.5
3244.3	30.5
3245.1	27
3245.91	30.5
3246.72	29
3247.53	30.5
3248.33	30
3249.14	31.5
3249.95	30
3250.75	32.5
3251.56	31
3252.36	28
3253.17	35.5
3253.97	33
3254.78	28
3255.59	28
3256.39	32
3257.2	33
3258	30.5
3258.81	27.5
3259.61	28
3260.42	34
3261.22	30
3262.03	32.5
3262.83	32.5
3263.64	31
3264.44	28
3265.24	31.5
3266.05	29.5
3266.85	35.5
3267.66	33
3268.46	32.5
3269.26	31.5
3270.07	32
3270.87	32.5
3271.67	30.5
3272.48	32
3273.28	31.5
3274.08	30.5
3274.89	32
3275.69	30
3276.49	32
3277.29	33
3278.1	31.5
3278.9	28
3279.7	28.5
3280.5	30.5
3281.3	30
3282.11	34.5
3282.91	27
3283.71	29
3284.51	33
3285.31	34
3286.11	32.5
3286.91	31.5
3287.72	28
3288.52	32
3289.32	31.5
3290.12	27.5
3290.92	32
3291.72	31.5
3292.52	31.5
3293.32	31.5
3294.12	32.5
3294.92	24
3295.72	29.5
3296.52	28
3297.32	27
3298.12	31.5
3298.92	30.5
3299.72	32
3300.52	28
3301.32	33.5
3302.12	30
3302.92	30.5
3303.71	31.5
3304.51	30
3305.31	31.5
3306.11	26
3306.91	35
3307.71	31
3308.5	30.5
3309.3	30
3310.1	35.5
3310.9	32.5
3311.7	30
3312.49	33.5
3313.29	28
3314.09	31
3314.89	34
3315.68	27.5
3316.48	33.5
3317.28	28.5
3318.07	30
3318.87	31
3319.67	33.5
3320.46	25.5
3321.26	30
3322.06	31
3322.85	30.5
3323.65	29.5
3324.44	31
3325.24	28
3326.04	31
3326.83	32
3327.63	30
3328.42	29.5
3329.22	25
3330.01	29
3330.81	30.5
3331.6	33.5
3332.4	29
3333.19	31
3333.99	29
3334.78	33.5
3335.58	29.5
3336.37	31
3337.17	30
3337.96	30.5
3338.75	28
3339.55	27
3340.34	29.5
3341.13	29.5
3341.93	29.5
3342.72	30
3343.51	30.5
3344.31	32
3345.1	30
3345.89	29
3346.69	31.5
3347.48	30.5
3348.27	32
3349.06	27
3349.86	29
3350.65	30.5
3351.44	30.5
3352.23	32.5
3353.03	29
3353.82	28.5
3354.61	30.5
3355.4	35
3356.19	30.5
3356.98	30.5
3357.78	29
3358.57	29.5
3359.36	29
3360.15	25
3360.94	33
3361.73	29.5
3362.52	27
3363.31	29.5
3364.1	33
3364.89	31.5
3365.68	30
3366.47	29.5
3367.26	30
3368.05	30.5
3368.84	32
3369.63	31.5
3370.42	26
3371.21	30
3372	32
3372.79	33
3373.58	33
3374.37	32
3375.16	28.5
3375.95	31
3376.73	30.5
3377.52	33.5
3378.31	30
3379.1	32
3379.89	31.5
3380.68	30.5
3381.46	30
3382.25	30
3383.04	30
3383.83	29.5
3384.62	29.5
3385.4	32
3386.19	31
3386.98	29.5
3387.76	29
3388.55	29.5
3389.34	27.5
3390.13	31
3390.91	33
3391.7	32
3392.49	30.5
3393.27	27.5
3394.06	27
3394.84	29
3395.63	28.5
3396.42	26.5
3397.2	26
3397.99	30
3398.77	28.5
3399.56	28.5
3400.34	29
3401.13	31
3401.92	32
3402.7	28.5
3403.49	29.5
3404.27	28
3405.06	31
3405.84	26
3406.62	27
3407.41	29.5
3408.19	31
3408.98	25
3409.76	30.5
3410.55	31
3411.33	31
3412.11	30.5
3412.9	31
3413.68	30
3414.46	26.5
3415.25	32
3416.03	30
3416.81	30.5
3417.6	31
3418.38	31
3419.16	29
3419.95	29
3420.73	32.5
3421.51	27
3422.29	26
3423.08	28
3423.86	32.5
3424.64	30
3425.42	31.5
3426.2	28
3426.98	29.5
3427.77	32.5
3428.55	28
3429.33	29
3430.11	30
3430.89	32
3431.67	31.5
3432.45	25
3433.24	28
3434.02	31.5
3434.8	26.5
3435.58	31
3436.36	28.5
3437.14	35
3437.92	31.5
3438.7	33.5
3439.48	29.5
3440.26	33.5
3441.04	31
3441.82	28.5
3442.6	27.5
3443.38	29
3444.16	26.5
3444.94	30
3445.71	28
3446.49	30
3447.27	35
3448.05	29.5
3448.83	32.5
3449.61	32.5
3450.39	29.5
3451.17	29
3451.94	31
3452.72	26.5
3453.5	30
3454.28	28
3455.06	30
3455.83	29
3456.61	28
3457.39	30.5
3458.17	29
3458.94	32.5
3459.72	30
3460.5	29.5
3461.28	30.5
3462.05	27
3462.83	29
3463.61	28
3464.38	28.5
3465.16	30
3465.93	28
3466.71	29.5
3467.49	29
3468.26	32.5
3469.04	28
3469.82	28
3470.59	28.5
3471.37	29.5
3472.14	24
3472.92	28.5
3473.69	27.5
3474.47	28
3475.24	33
3476.02	29
3476.79	29.5
3477.57	33
3478.34	27
3479.12	33
3479.89	27.5
3480.67	32
3481.44	32
3482.21	32
3482.99	26.5
3483.76	28.5
3484.54	26.5
3485.31	29.5
3486.08	28.5
3486.86	32
3487.63	28.5
3488.4	28
3489.18	28.5
3489.95	26
3490.72	27.5
3491.5	30.5
3492.27	31
3493.04	30
3493.81	33
3494.59	28
3495.36	30.5
3496.13	29.5
3496.9	31
3497.67	30
3498.45	29
3499.22	29.5
3499.99	29.5
