#Acq. time (s)=	5
#Accumulations=	5
#Range (cm-¹)=	100...3500
#Windows=	4
#Autofocus=	Off
#AutoExposure=	Off
#Spike filter=	Multiple accum.
#Delay time (s)=	0
#Binning=	1
#Readout mode=	Signal
#DeNoise=	Off
#ICS correction=	Off
#Dark correction=	Off
#Inst. Process=	Off
#Instrument=	LabRAM HR Evol
#Detector=	Syncerity OE
#Objective=	x100_VIS
#Grating=	600 (500nm)
#ND Filter=	25%
#Laser=	633nm_Edge
#Hole=	100.021
#Range=	Visible
#Project=	verificaciones
#Sample=	a4
#Site=	plain
#Title=	bolusa4plain
#Remark=	
#Date=	09.01.2026 14:51
#Acquired=	09.01.2026 14:51:44
100.695	24.5
101.978	27.5
103.262	31
104.545	29
105.829	26.5
107.112	29
108.394	26
109.676	29
110.958	29
112.24	27.5
113.522	26
114.803	28
116.084	30
117.365	31
118.646	27
119.927	31
121.207	27
122.487	30.5
123.767	28
125.047	26
126.326	30.5
127.606	30
128.885	33.5
130.164	32.5
131.442	26
132.721	28.5
133.999	28.5
135.277	25
136.555	32
137.831	33
139.109	30.5
140.386	33
141.663	33.5
142.94	28
144.216	33
145.493	32
146.769	31.5
148.043	35.5
149.319	32
150.595	31
151.87	33
153.145	28
154.42	30.5
155.693	39
156.968	36.5
158.242	32.5
159.516	29
160.79	36
162.062	34
163.336	38
164.609	32
165.882	32.5
167.153	31
168.426	37.5
169.699	31.5
170.971	35
172.241	35
173.513	32
174.785	31.5
176.055	33.5
177.326	31
178.597	35.5
179.866	35.5
181.137	28.5
182.407	34.5
183.676	32
184.946	31
186.216	33
187.484	33
188.753	35
190.022	34
191.29	36
192.558	35
193.825	34.5
195.094	35.5
196.36	35
197.628	38
198.896	34
200.162	32
201.429	31.5
202.695	37.5
203.962	36.5
205.227	30.5
206.493	32
207.758	31
209.024	35.5
210.289	30.5
211.554	31
212.818	29
214.083	31.5
215.347	33
216.612	33
217.875	29.5
219.138	29
220.402	26.5
221.665	32
222.928	30.5
224.19	32
225.454	29.5
226.715	30.5
227.977	30.5
229.24	32.5
230.501	27
231.762	32
233.024	27.5
234.284	27
235.546	28.5
236.806	28
238.066	35
239.327	30.5
240.587	26
241.846	25
243.105	27.5
244.365	29
245.624	29
246.882	27.5
248.142	26.5
249.4	30
250.658	28.5
251.916	25
253.174	26
254.432	29
255.689	28.5
256.945	28.5
258.202	26.5
259.46	24
260.716	29
261.972	26.5
263.228	29
264.483	28.5
265.74	30.5
266.996	27.5
268.251	26.5
269.505	29.5
270.76	29
272.014	28
273.268	28.5
274.522	28
275.778	30
277.031	26.5
278.285	27.5
279.538	30.5
280.791	24.5
282.043	30.5
283.296	25.5
284.548	23
285.8	28.5
287.052	28
288.304	31
289.556	27
290.807	25
292.058	29.5
293.309	27.5
294.56	29
295.81	26
297.061	26.5
298.311	25.5
299.561	24
300.81	24
302.06	26.5
303.309	23.5
304.558	27.5
305.807	23.5
307.056	24
308.305	30
309.551	26.5
310.8	28
312.047	27.5
313.295	22
314.543	22.5
315.79	26.5
317.037	27
318.284	27
319.529	27
320.776	25.5
322.022	25
323.268	29
324.514	28
325.758	27
327.004	28
328.249	25.5
329.494	30
330.739	25.5
331.982	28.5
333.227	27.5
334.471	25
335.715	23.5
336.958	32
338.201	29
339.445	25
340.687	24.5
341.93	28.5
343.173	24.5
344.414	31.5
345.657	25.5
346.899	28
348.14	29.5
349.381	31.5
350.623	25
351.863	32.5
353.104	30
354.346	30
355.585	27
356.826	28
358.065	24.5
359.305	28
360.545	31
361.784	27
363.023	26.5
364.261	29.5
365.501	25
366.738	25.5
367.977	29
369.216	26
370.453	29.5
371.691	28
372.928	24
374.166	28
375.402	27
376.64	27.5
377.876	27.5
379.111	23.5
380.348	29
381.584	23
382.82	29.5
384.055	30
385.291	28.5
386.526	27
387.76	29.5
388.996	29
390.229	26.5
391.465	28
392.698	30
393.931	30.5
395.166	27.5
396.399	25.5
397.632	30
398.866	27.5
400.098	28.5
401.33	29.5
402.563	29
403.795	26
405.027	28
406.259	27
407.491	27.5
408.721	23.5
409.954	28.5
411.184	30
412.415	27
413.645	22.5
414.876	31
416.106	23
417.335	29
418.565	27
419.794	26
421.024	28
422.253	25
423.482	25.5
424.71	28
425.938	28.5
427.168	26
428.396	24.5
429.623	24.5
430.851	28
432.078	27.5
433.305	27.5
434.532	27
435.758	28
436.986	24
438.212	26
439.438	31
440.664	25.5
441.89	26
443.115	27
444.34	27.5
445.566	26
446.79	23
448.015	30
449.24	30
450.464	28.5
451.688	28.5
452.912	28
454.135	27.5
455.359	31
456.582	27
457.805	25
459.028	28
460.251	33.5
461.473	33.5
462.696	30.5
463.918	29.5
465.14	31.5
466.36	32
467.582	30.5
468.803	30
470.024	31
471.245	30.5
472.466	32
473.686	30
474.907	32.5
476.126	32.5
477.346	34
478.565	33
479.785	38.5
481.004	41
482.224	42.5
483.441	37.5
484.66	47.5
485.879	42.5
487.097	44
488.314	46
489.532	51.5
490.75	47.5
491.967	49
493.184	44.5
494.401	42
495.618	44
496.835	41.5
498.05	41.5
499.267	39.5
500.483	38.5
501.698	31
502.913	35.5
504.129	37
505.343	36
506.559	34
507.774	34.5
508.987	36
510.202	32
511.415	31
512.63	34
513.844	33.5
515.056	31
516.27	29
517.482	31
518.696	28.5
519.907	32
521.121	31.5
522.332	27
523.545	31
524.757	30.5
525.968	26
527.18	27.5
528.39	33
529.602	30
530.812	31.5
532.023	30.5
533.233	31.5
534.443	34
535.653	22.5
536.862	30
538.073	26
539.281	27.5
540.491	31
541.7	28
542.908	28
544.117	30
545.325	30
546.534	26
547.741	28
548.949	28
550.157	26.5
551.364	30
552.57	25
553.778	29.5
554.985	27
556.191	29
557.398	25.5
558.604	27.5
559.809	30
561.014	28.5
562.221	27.5
563.426	27
564.63	28
565.835	25.5
567.041	25.5
568.245	27
569.449	24
570.653	28
571.856	25
573.061	25
574.264	26.5
575.467	30
576.67	25.5
577.873	25
579.076	24
580.279	27.5
581.481	31.5
582.683	27
583.884	28.5
585.086	29
586.287	29.5
587.488	26
588.689	27
589.891	27
591.092	28
592.292	29.5
593.492	29.5
594.692	25.5
595.892	26.5
597.092	25.5
598.291	26.5
599.49	27
600.689	27.5
601.888	29.5
603.087	28
604.285	28.5
605.483	25
606.681	31
607.879	29.5
609.077	22
610.274	27.5
611.472	29.5
612.668	27
613.865	30.5
615.061	27
616.258	27
617.454	26.5
618.65	28
619.846	29.5
621.042	30
622.238	27
623.432	25
624.627	25
625.822	26.5
627.017	26
628.212	25
629.406	26
630.599	28
631.793	26.5
632.987	26
634.181	28.5
635.373	27.5
636.566	27
637.76	23
638.953	28
640.144	25
641.337	27
642.529	27
643.721	26.5
644.912	26
646.104	31
647.295	27
648.485	29.5
649.677	30
650.868	25
652.057	29
653.248	25
654.437	27.5
655.628	29.5
656.818	30
658.006	27
659.196	25
660.384	23.5
661.574	27.5
662.763	27
663.951	31
665.14	28
666.327	29
667.515	28
668.702	32
669.891	24
671.077	28
672.265	27
673.451	32
674.638	29.5
675.824	30.5
677.011	28
678.197	30
679.383	29.5
680.568	30
681.755	30.5
682.939	30.5
684.124	33
685.309	33.5
686.494	29
687.679	32
688.863	29
690.046	32.5
691.231	29
692.414	28.5
693.599	29.5
694.781	29
695.964	30
697.148	32.5
698.33	31
699.512	30.5
700.694	33
701.877	31
703.059	34
704.24	35
705.423	40
706.604	42
707.784	39.5
708.965	40.5
710.147	41
711.327	37.5
712.507	40
713.687	33
714.867	37
716.048	33.5
717.227	32.5
718.406	35.5
719.585	28.5
720.764	28.5
721.942	28
723.122	32.5
724.3	32
725.478	26.5
726.656	29
727.834	29.5
729.011	29
730.189	29.5
731.366	27.5
732.543	31.5
733.719	24.5
734.896	31
736.072	24.5
737.249	28
738.426	27
739.602	26
740.777	27.5
741.953	26.5
743.128	30.5
744.303	28.5
745.477	29
746.651	28
747.826	29.5
749	27
750.174	28
751.348	26.5
752.522	27
753.696	27
754.869	32
756.043	23
757.216	32
758.389	23.5
759.561	30.5
760.732	23
761.905	29
763.077	27
764.249	28.5
765.421	26.5
766.592	29
767.762	28.5
768.934	27
770.105	26.5
771.275	30.5
772.446	28
773.615	29
774.786	27
775.956	25.5
777.126	28
778.294	29
779.464	27
780.633	29
781.801	29
782.97	29
784.139	29
785.306	30
786.475	29
787.643	33
788.81	27.5
789.978	28
791.146	32
792.312	29.5
793.479	27
794.647	28.5
795.812	30
796.979	28.5
798.144	30
799.311	25.5
800.477	32
801.642	28.5
802.808	31.5
803.972	25.5
805.138	28.5
806.302	30
807.467	29.5
808.631	22.5
809.796	28
810.959	28.5
812.124	30.5
813.287	28
814.451	26.5
815.614	25
816.777	27.5
817.94	25
819.102	24
820.265	27.5
821.427	27.5
822.59	27
823.751	25
824.912	29.5
826.074	27
827.235	28
828.397	28
829.558	26.5
830.718	30
831.879	29
833.039	27.5
834.199	28
835.359	25
836.519	29.5
837.679	30.5
838.838	26.5
839.998	23
841.156	25
842.315	27.5
843.473	23.5
844.633	25
845.791	29.5
846.948	31.5
848.106	24
849.263	28.5
850.422	27.5
851.579	29.5
852.736	24.5
853.892	28
855.049	27
856.205	30.5
857.363	25.5
858.519	27
859.674	30
860.83	31
861.986	27.5
863.141	32
864.296	34
865.451	24.5
866.605	29.5
867.76	25.5
868.914	28
870.069	25
871.224	31.5
872.378	25
873.531	30
874.685	27
875.838	30
876.991	29
878.144	30
879.296	32
880.448	28
881.6	28
882.753	28
883.905	28
885.057	27
886.208	27
887.36	26
888.511	27.5
889.662	27
890.813	29.5
891.964	23
893.113	26.5
894.264	25
895.414	27
896.564	22
897.714	24.5
898.864	23
900.012	27.5
901.161	27
902.31	26
903.459	27.5
904.607	27
905.756	25.5
906.904	26
908.052	25
909.199	26.5
910.347	24.5
911.495	28
912.643	25
913.789	26.5
914.936	25
916.083	29
917.229	27
918.375	28
919.522	27
920.667	24.5
921.813	22.5
922.959	23
924.104	29.5
925.249	27.5
926.393	24
927.539	25
928.684	27.5
929.827	21
930.972	31
932.115	26
933.26	29
934.403	25
935.547	26
936.689	27
937.833	28.5
938.975	26.5
940.119	28
941.26	27.5
942.404	25.5
943.545	25
944.688	27
945.829	28.5
946.971	24.5
948.112	25
949.253	25.5
950.394	25
951.535	27.5
952.676	26
953.816	27.5
954.956	22
956.097	24.5
957.236	26
958.377	25
959.516	29.5
960.655	26.5
961.793	26.5
962.933	26.5
964.071	27
965.21	26.5
966.349	28.5
967.487	27
968.624	30.5
969.762	28.5
970.901	26.75
972.038	24.5
973.175	25.5
974.311	24.5
975.449	29
976.586	26
977.722	24.5
978.858	22.5
979.994	28
981.131	26.5
982.267	29.5
983.402	24.5
984.537	23.5
985.672	26
986.807	24.5
987.942	27
989.076	22.5
990.211	24.5
991.346	26
992.48	23.5
993.614	25.5
994.748	28.5
995.881	25
997.014	25
998.148	24.5
999.28	21
1000.41	24.5
1001.55	25.5
1002.68	23.5
1003.81	26.5
1004.94	22
1006.07	24.5
1007.21	25.5
1008.34	23
1009.47	26.5
1010.6	25
1011.73	29
1012.86	27.5
1013.99	24
1015.12	25.5
1016.25	25
1017.38	26.5
1018.51	24.5
1019.64	27
1020.77	28.5
1021.9	27
1023.03	23
1024.16	23
1025.29	25.5
1026.42	28.5
1027.54	26.5
1028.67	23
1029.8	25
1030.93	21.5
1032.06	24.5
1033.18	26
1034.31	25
1035.44	20.5
1036.56	24
1037.69	23.5
1038.82	24.5
1039.94	17
1041.07	26
1042.2	25
1043.32	24
1044.45	24.5
1045.57	26.5
1046.7	24.5
1047.82	27
1048.95	28.5
1050.07	29.5
1051.2	25.5
1052.32	27.5
1053.45	25.5
1054.57	26
1055.69	26
1056.82	30
1057.94	25.5
1059.06	27
1060.19	21
1061.31	23
1062.43	24.5
1063.55	26
1064.68	27.5
1065.8	23
1066.92	26.5
1068.04	26.5
1069.16	26.5
1070.28	25
1071.41	26
1072.53	24
1073.65	25
1074.77	20
1075.89	27
1077.01	20
1078.13	26.5
1079.25	26
1080.37	24.5
1081.49	23.5
1082.61	29
1083.73	25
1084.85	24
1085.96	25.5
1087.08	22.5
1088.2	24
1089.32	25
1090.44	25
1091.56	24.5
1092.67	23.5
1093.79	24.5
1094.91	25
1096.03	27.5
1097.14	28
1098.26	25
1099.38	25
1100.49	27
1101.61	26.5
1102.73	24
1103.84	26
1104.96	26
1106.07	23.5
1107.19	21
1108.3	25.5
1109.42	26.5
1110.53	25.5
1111.65	28
1112.76	23
1113.88	24.5
1114.99	23.5
1116.1	27
1117.22	23
1118.33	24.5
1119.44	25
1120.56	25
1121.67	22
1122.78	24.5
1123.9	27.5
1125.01	26.5
1126.12	27.5
1127.23	23.5
1128.34	24.5
1129.46	26
1130.57	20
1131.68	23.5
1132.79	23
1133.9	25
1135.01	22
1136.12	27
1137.23	25.5
1138.34	25
1139.45	24.5
1140.56	27.5
1141.67	23.5
1142.78	21.5
1143.89	24
1145	25
1146.11	30
1147.22	27.5
1148.33	25
1149.44	24
1150.54	25.5
1151.65	24.5
1152.76	24
1153.87	23
1154.97	21.5
1156.08	28
1157.19	27.5
1158.3	22.5
1159.4	26.5
1160.51	26.5
1161.62	25
1162.72	20
1163.83	27
1164.93	27
1166.04	24.5
1167.15	26
1168.25	21
1169.36	26
1170.46	26
1171.57	23
1172.67	28
1173.78	24.5
1174.88	24
1175.98	24
1177.09	25.5
1178.19	22
1179.3	26
1180.4	26
1181.5	25.5
1182.61	22.5
1183.71	21.5
1184.81	27.5
1185.91	23.5
1187.02	25.5
1188.12	23.5
1189.22	23
1190.32	26.5
1191.42	22.5
1192.53	24
1193.63	31
1194.73	23.4845
1195.83	23.9324
1196.93	25.4876
1198.03	23.6368
1199.13	23.0344
1200.23	23.0055
1201.33	23.4936
1202.43	27.6431
1203.53	24.8762
1204.63	26.6858
1205.73	23.1674
1206.83	25.1203
1207.93	23.601
1209.02	22.9691
1210.12	24.8016
1211.22	21.9965
1212.32	21.9435
1213.42	23.8301
1214.52	25.8974
1215.61	23.6345
1216.71	22.2826
1217.81	20.9347
1218.91	22.8993
1220	24.1815
1221.1	28.7832
1222.2	27.3444
1223.29	21.7849
1224.39	26.4594
1225.49	25.2634
1226.58	26.9388
1227.68	25.0004
1228.77	26
1229.87	24.912
1230.96	23.4644
1232.06	24.9702
1233.15	23.7074
1234.25	24.3339
1235.34	22.6992
1236.44	23.4574
1237.53	25.6661
1238.63	25.183
1239.72	23.479
1240.81	22.1869
1241.91	25.1981
1243	22.2875
1244.09	24.1165
1245.19	24.6432
1246.28	23.8444
1247.37	23.0896
1248.46	23.6752
1249.56	22.271
1250.65	24.7323
1251.74	24.2499
1252.83	26.4561
1253.92	21.6106
1255.01	23.7428
1256.11	25.6218
1257.2	25.1434
1258.29	28.2553
1259.38	27.7483
1260.47	27.8276
1261.56	21.8653
1262.65	23.3964
1263.74	24.0677
1264.83	24.8206
1265.92	23.4912
1267.01	24.6456
1268.1	26.2374
1269.19	26.1012
1270.27	24.372
1271.36	20.7835
1272.45	19.1626
1273.54	23.7271
1274.63	24.5542
1275.72	23.5046
1276.8	23.9856
1277.89	25.2317
1278.98	25.5807
1280.07	24.6037
1281.15	24.1578
1282.24	23.839
1283.33	23.7119
1284.41	22.7344
1285.5	23.4829
1286.59	24.2484
1287.67	24.8397
1288.76	22.5442
1289.84	23.7938
1290.93	23.5913
1292.01	23.0431
1293.1	24.6398
1294.19	25.8127
1295.27	24.1348
1296.35	23.4078
1297.44	25.3988
1298.52	27.5008
1299.61	25.9887
1300.69	22.6768
1301.78	25.6662
1302.86	23.6246
1303.94	24.6669
1305.03	25.8061
1306.11	25.6294
1306.4	25.5
1307.49	23
1308.57	25
1309.66	21.5
1310.75	23.5
1311.84	20
1312.92	23
1314.01	20.5
1315.1	20
1316.19	22
1317.27	24
1318.36	24
1319.45	21.5
1320.53	26
1321.62	24
1322.7	24.5
1323.79	23
1324.88	20.5
1325.96	23
1327.05	26.5
1328.13	24
1329.21	22.5
1330.3	23
1331.38	22
1332.47	23
1333.55	22
1334.64	24.5
1335.72	27
1336.8	23.5
1337.89	26.5
1338.97	25
1340.05	25
1341.14	20
1342.22	26
1343.3	25.5
1344.39	23
1345.47	24.5
1346.55	21.5
1347.63	25.5
1348.71	24.5
1349.79	23
1350.88	24.5
1351.96	20.5
1353.04	26.5
1354.12	23
1355.2	25.5
1356.28	22.5
1357.36	21
1358.44	25.5
1359.52	23
1360.6	26
1361.68	25
1362.76	25
1363.84	24
1364.92	22
1366	25
1367.08	24
1368.16	18
1369.23	25.5
1370.31	26
1371.39	27
1372.47	22.5
1373.55	26.5
1374.62	25.5
1375.7	23
1376.78	22.5
1377.85	26.5
1378.93	25
1380.01	23.5
1381.09	22.5
1382.16	25.5
1383.24	26
1384.31	22
1385.39	26
1386.47	26
1387.54	25.5
1388.62	24.5
1389.69	26
1390.77	28.5
1391.84	24
1392.92	24
1393.99	21
1395.06	21
1396.14	26.5
1397.21	29.5
1398.29	28
1399.36	26
1400.43	28.5
1401.51	30
1402.58	24.5
1403.65	28
1404.73	26.5
1405.8	25
1406.87	28
1407.94	28
1409.02	25.5
1410.09	32
1411.16	27
1412.23	25.5
1413.3	25
1414.37	30.5
1415.45	28.5
1416.52	26
1417.59	26
1418.66	29
1419.73	27
1420.8	32
1421.87	26
1422.94	28
1424.01	27.5
1425.08	26
1426.15	26
1427.22	25
1428.29	25
1429.35	22
1430.42	25
1431.49	24.5
1432.56	26
1433.63	30
1434.7	26
1435.77	28.5
1436.83	23
1437.9	24
1438.97	27
1440.04	25
1441.1	25
1442.17	27
1443.24	23.5
1444.3	22.5
1445.37	22
1446.44	25
1447.5	28
1448.57	21.5
1449.63	26
1450.7	28
1451.76	23
1452.83	22.5
1453.89	26.5
1454.96	26
1456.02	23
1457.09	21
1458.15	23
1459.22	24
1460.28	20
1461.34	27.5
1462.41	27.5
1463.47	25.5
1464.54	31.5
1465.6	25.5
1466.66	21.5
1467.72	25.5
1468.79	25.5
1469.85	24
1470.91	25.5
1471.97	25.5
1473.04	22.5
1474.1	25
1475.16	24
1476.22	24
1477.28	27
1478.34	21
1479.4	23.5
1480.47	23
1481.53	27
1482.59	26
1483.65	26.5
1484.71	24
1485.77	20
1486.83	24
1487.89	27
1488.95	28.5
1490.01	25
1491.07	23
1492.12	23.5
1493.18	21
1494.24	29
1495.3	26
1496.36	26.5
1497.42	27
1498.47	25
1499.53	25.5
1500.59	26.5
1501.65	22
1502.7	27
1503.76	24
1504.82	27
1505.88	24.5
1506.93	23
1507.99	27.5
1509.05	25
1510.1	24
1511.16	24
1512.21	26
1513.27	26
1514.32	25
1515.38	26
1516.43	27
1517.49	26
1518.54	28
1519.6	23.5
1520.65	24
1521.71	25
1522.76	19.5
1523.82	24.5
1524.87	22.5
1525.92	23.5
1526.98	24
1528.03	28.5
1529.08	26.5
1530.14	22
1531.19	26
1532.24	25.5
1533.3	25
1534.35	23
1535.4	24
1536.45	23.5
1537.5	22
1538.56	24.5
1539.61	29.5
1540.66	28.5
1541.71	25.5
1542.76	22.5
1543.81	23.5
1544.86	28
1545.91	22.5
1546.96	26
1548.01	23.5
1549.06	21.5
1550.11	22.5
1551.16	21.5
1552.21	25.5
1553.26	25.5
1554.31	28
1555.36	25.5
1556.41	26
1557.46	23
1558.51	25
1559.55	24.5
1560.6	25
1561.65	23.5
1562.7	25
1563.75	26.5
1564.79	23.5
1565.84	25
1566.89	24
1567.94	26
1568.98	25
1570.03	29.5
1571.07	25.5
1572.12	28
1573.17	24.5
1574.21	25
1575.26	26
1576.31	28
1577.35	26
1578.4	26
1579.44	25.5
1580.49	29
1581.53	23.5
1582.58	23.5
1583.62	24.5
1584.67	26
1585.71	23.5
1586.75	26
1587.8	25
1588.84	25
1589.89	23.5
1590.93	25.5
1591.97	21.5
1593.02	24
1594.06	25.5
1595.1	26
1596.14	20
1597.19	25
1598.23	23.5
1599.27	26
1600.31	26
1601.35	20
1602.4	23.5
1603.44	23.5
1604.48	24.5
1605.52	28
1606.56	25.5
1607.6	25
1608.64	22
1609.68	22
1610.72	20.5
1611.76	29.5
1612.8	22
1613.84	26.5
1614.88	23.5
1615.92	24.5
1616.96	25.5
1618	27
1619.04	26.5
1620.08	22
1621.12	27
1622.16	28.5
1623.19	23
1624.23	26.5
1625.27	25
1626.31	25
1627.35	23
1628.38	25.5
1629.42	27
1630.46	25
1631.5	28
1632.53	27
1633.57	25
1634.61	23
1635.64	28
1636.68	26.5
1637.71	27.5
1638.75	27.5
1639.79	27
1640.82	26.5
1641.86	26
1642.89	25
1643.93	22
1644.96	25.5
1646	24.5
1647.03	27
1648.07	27
1649.1	27
1650.14	21
1651.17	28
1652.2	28.5
1653.24	24.5
1654.27	25.5
1655.3	26
1656.34	24
1657.37	25.5
1658.4	23.5
1659.44	26
1660.47	25
1661.5	23
1662.53	21.5
1663.57	28
1664.6	23
1665.63	29
1666.66	24
1667.69	23
1668.72	24
1669.75	29.5
1670.79	23.5
1671.82	27.5
1672.85	28
1673.88	24
1674.91	25
1675.94	28
1676.97	25.5
1678	26
1679.03	24
1680.06	22
1681.09	26
1682.11	29
1683.14	24
1684.17	24.5
1685.2	27
1686.23	22
1687.26	23
1688.29	24.5
1689.32	24.5
1690.34	26.5
1691.37	26.5
1692.4	28
1693.43	25
1694.45	23.5
1695.48	25
1696.51	25.5
1697.53	24
1698.56	24
1699.59	24.5
1700.61	22.5
1701.64	26.5
1702.66	27.5
1703.69	28.5
1704.72	28.5
1705.74	24.5
1706.77	21.5
1707.79	26
1708.82	23
1709.84	24
1710.87	24
1711.89	27
1712.92	25
1713.94	24.5
1714.96	24.5
1715.99	28
1717.01	28
1718.04	25.5
1719.06	20
1720.08	21
1721.11	27
1722.13	26
1723.15	27
1724.17	27
1725.2	30
1726.22	23.5
1727.24	23
1728.26	27.5
1729.28	24
1730.31	25
1731.33	23
1732.35	27.5
1733.37	25.5
1734.39	25.5
1735.41	26
1736.43	24.5
1737.45	23.5
1738.47	27
1739.49	24
1740.51	22.5
1741.53	25
1742.55	26
1743.57	29.5
1744.59	28
1745.61	26
1746.63	28.5
1747.65	25.5
1748.67	23.5
1749.69	25.5
1750.71	25.5
1751.72	24
1752.74	29
1753.76	22.5
1754.78	26
1755.8	25.5
1756.81	23.5
1757.83	25
1758.85	23.5
1759.86	28.5
1760.88	26.5
1761.9	25.5
1762.91	28
1763.93	25
1764.95	22
1765.96	27
1766.98	26.5
1768	23.5
1769.01	26.5
1770.03	25.5
1771.04	20.5
1772.06	25.5
1773.07	26.5
1774.09	22
1775.1	22.5
1776.12	23.5
1777.13	24.5
1778.14	23
1779.16	27.5
1780.17	28
1781.19	28
1782.2	24.5
1783.21	28
1784.23	25
1785.24	27
1786.25	22
1787.27	22
1788.28	22
1789.29	27.5
1790.3	25
1791.32	23.5
1792.33	25
1793.34	23.5
1794.35	27
1795.36	30
1796.37	22
1797.38	24
1798.4	24
1799.41	25.5
1800.42	25
1801.43	28
1802.44	20
1803.45	26
1804.46	24
1805.47	26
1806.48	22.5
1807.49	26.5
1808.5	21.5
1809.51	24
1810.52	26.5
1811.53	28
1812.53	25.5
1813.54	28.5
1814.55	23
1815.56	23
1816.57	22.5
1817.58	25
1818.58	27
1819.59	22
1820.6	30.5
1821.61	26
1822.61	25
1823.62	27
1824.63	22.5
1825.64	26
1826.64	23
1827.65	18.5
1828.66	26
1829.66	27.5
1830.67	23
1831.67	26.5
1832.68	23
1833.68	23
1834.69	22.5
1835.7	24.5
1836.7	23.5
1837.71	24.5
1838.71	26
1839.71	25.5
1840.72	19.5
1841.72	28
1842.73	25.5
1843.73	24
1844.74	28
1845.74	22
1846.74	26
1847.75	25
1848.75	25
1849.75	23.5
1850.76	25
1851.76	24
1852.76	23.5
1853.76	21
1854.77	25.5
1855.77	28
1856.77	27
1857.77	24.5
1858.77	27
1859.78	25
1860.78	21.5
1861.78	25
1862.78	25.5
1863.78	24
1864.78	27
1865.78	24
1866.78	27
1867.78	23
1868.78	21.5
1869.78	25
1870.78	29.5
1871.78	23.5
1872.78	22.5
1873.78	23
1874.78	21
1875.78	22
1876.78	24.5
1877.78	26.5
1878.78	24
1879.77	25.5
1880.77	26.5
1881.77	18.5
1882.77	26
1883.77	22.5
1884.76	22.5
1885.76	27.5
1886.76	25
1887.76	23.5
1888.75	25.5
1889.75	26
1890.75	22
1891.74	24.5
1892.74	25
1893.74	25.5
1894.73	25
1895.73	21
1896.72	22.5
1897.72	22
1898.72	21.5
1899.71	25
1900.71	25.5
1901.7	22
1902.7	23.5
1903.69	25.5
1904.69	24
1905.68	26.5
1906.67	22.5
1907.67	25
1908.66	23.5
1909.66	19.5
1910.65	23
1911.64	24.5
1912.64	22
1913.63	26
1914.62	22.5
1915.62	27.5
1916.61	22.5
1917.6	22
1918.59	28
1919.59	24.5
1920.58	24
1921.57	21
1922.56	23
1923.55	23.5
1924.55	19
1925.54	27
1926.53	27
1927.52	22.5
1928.51	25.5
1929.5	18.5
1930.49	27
1931.48	25
1932.47	28
1933.46	24.5
1934.45	25.5
1935.44	22
1936.43	24
1937.42	30.5
1938.41	23.5
1939.4	27.5
1940.39	23.5
1941.38	28.5
1942.37	25
1943.36	25
1944.34	23
1945.33	23.5
1946.32	26
1947.31	23
1948.3	26
1949.28	27
1950.27	27
1951.26	26
1952.25	23.5
1953.23	23.5
1954.22	25
1955.21	23
1956.2	21.5
1957.18	18.5
1958.17	26
1959.15	26
1960.14	26.5
1961.13	22
1962.11	23.5
1963.1	27
1964.08	26
1965.07	26
1966.05	21
1967.04	26
1968.02	25
1969.01	27
1969.99	21.5
1970.98	21.5
1971.96	20
1972.94	20
1973.93	25
1974.91	22.5
1975.9	24.5
1976.88	25.5
1977.86	26
1978.85	23
1979.83	23
1980.81	27
1981.8	24
1982.78	23.5
1983.76	21
1984.74	25.5
1985.72	22
1986.71	25.5
1987.69	26
1988.67	29
1989.65	23.5
1990.63	21
1991.61	23.5
1992.6	23
1993.58	24.5
1994.56	23
1995.54	23.5
1996.52	28
1997.5	23.5
1998.48	23
1999.46	22
2000.44	20
2001.42	20
2002.4	24.5
2003.38	20.5
2004.36	24
2005.34	25.5
2006.32	25
2007.29	23
2008.27	26.5
2009.25	23
2010.23	25
2011.21	23
2012.19	22
2013.16	25
2014.14	27
2015.12	26
2016.1	25
2017.07	24.5
2018.05	21
2019.03	27.5
2020	23
2020.98	20
2021.96	22
2022.93	26.5
2023.91	24
2024.89	26
2025.86	21.5
2026.84	20.5
2027.81	22.5
2028.79	24.5
2029.77	25
2030.74	24
2031.72	25.5
2032.69	24.5
2033.67	26
2034.64	24.5
2035.61	24
2036.59	26.5
2037.56	24.5
2038.54	26
2039.51	18
2040.48	22
2041.46	23
2042.43	25.5
2043.41	24
2044.38	19
2045.35	25
2046.32	25
2047.3	23.5
2048.27	22
2049.24	22
2050.21	25
2051.19	23
2052.16	24
2053.13	24.5
2054.1	22.5
2055.07	22.5
2056.04	23
2057.02	27
2057.99	25
2058.96	26.5
2059.93	23
2060.9	24
2061.87	21.5
2062.84	24
2063.81	24
2064.78	26
2065.75	24
2066.72	25.5
2067.69	24.5
2068.66	22
2069.63	21.5
2070.6	24
2071.57	23
2072.53	23
2073.5	24.5
2074.47	26
2075.44	25
2076.41	27.5
2077.38	20.5
2078.34	21
2079.31	21.5
2080.28	22
2081.25	20.5
2082.21	26
2083.18	24.5
2084.15	25.5
2085.12	23
2086.08	17
2087.05	24
2088.02	23.5
2088.98	25.5
2089.95	21
2090.91	22
2091.88	23
2092.85	25
2093.81	22
2094.78	21.5
2095.74	30
2096.71	20.5
2097.67	18.5
2098.64	25.5
2099.6	25
2100.57	23
2101.53	24
2102.5	22
2103.46	23.5
2104.42	23.5
2105.39	23
2106.35	23.5
2107.31	21
2108.28	24.5
2109.24	24.5
2110.2	28.5
2111.17	25.5
2112.13	24.5
2113.09	23.5
2114.06	23.5
2115.02	21.5
2115.98	25
2116.94	22.5
2117.9	23.5
2118.86	24
2119.83	23
2120.79	19.5
2121.75	23.5
2122.71	22
2123.67	25.5
2124.63	21
2125.59	21
2126.55	22.5
2127.51	23.5
2128.48	23.5
2129.43	26
2130.4	21
2131.35	27
2132.31	22.5
2133.27	22
2134.23	23.5
2135.19	24.5
2136.15	25
2137.11	26
2138.07	23
2139.03	19.5
2139.99	22.5
2140.95	22
2141.9	20
2142.86	23.9732
2143.82	23.908
2144.78	20.1077
2145.74	20.6357
2146.69	27.7255
2147.65	25.2894
2148.61	17.8902
2149.56	24.5728
2150.52	25.4567
2151.48	25.2089
2152.44	23.1316
2153.39	24.707
2154.35	21.5312
2155.3	24.0257
2156.26	23.5237
2157.22	24.3468
2158.17	18.365
2159.13	21.3213
2160.08	23.3965
2161.04	21.8523
2161.99	21.6052
2162.95	22.8544
2163.9	24.0078
2164.86	22.4871
2165.81	22.324
2166.77	23.9079
2167.72	24.0153
2168.68	23.5556
2169.63	24.9279
2170.58	23.3991
2171.54	22.668
2172.49	24.6493
2173.44	22.226
2174.4	23.3838
2175.35	24.2702
2176.3	21.9685
2177.26	24.2857
2178.21	22.0303
2179.16	19.8852
2180.11	25.4862
2181.07	23.9486
2182.02	19.1628
2182.97	21.2748
2183.92	20.1758
2184.88	20.8123
2185.83	21.9544
2186.78	21.2898
2187.73	21.5766
2188.68	23.9677
2189.63	22.3576
2190.58	23.1161
2191.53	21.8175
2192.48	21.284
2193.43	23.4717
2194.38	22.0213
2195.33	22.6583
2196.28	19.993
2197.23	23.2791
2198.18	23.9347
2199.13	22.1005
2200.08	23.8807
2201.03	21.4045
2201.98	21.6068
2202.93	21.4248
2203.88	22
2204.83	22.7282
2205.78	24.5
2206.72	21.0061
2207.67	20.335
2208.62	24.0272
2209.57	23.229
2210.52	23.7857
2211.46	22.1337
2212.41	20.0551
2213.36	20.9523
2214.31	21.767
2215.25	22.953
2216.2	23.338
2217.15	21.1198
2218.09	21.533
2219.04	21.196
2219.99	21.4531
2220.93	21.091
2221.88	20.7378
2222.83	22.8325
2223.77	25.1661
2224.72	20.4348
2225.66	24.2069
2226.61	21.1332
2227.55	23.8424
2228.5	21.5351
2229.44	23.5554
2230.39	19.5617
2231.33	23.8692
2232.28	24.4967
2233.22	23.9753
2234.17	22.7329
2235.11	20.8634
2236.05	20.9055
2237	22.8895
2237.94	26.215
2238.88	26.5182
2239.83	22.2054
2240.04	21
2240.98	24
2241.93	25
2242.88	24
2243.83	26.5
2244.78	20
2245.72	22.5
2246.67	25
2247.62	26.5
2248.56	24.5
2249.51	26
2250.46	22.5
2251.4	22.5
2252.35	23.5
2253.3	22.5
2254.24	24.5
2255.19	23
2256.14	22
2257.08	23
2258.03	25
2258.97	23.5
2259.92	24
2260.86	26
2261.81	19
2262.75	21.5
2263.7	21.5
2264.64	24.5
2265.59	23
2266.53	22.5
2267.48	21.5
2268.42	23.5
2269.36	25
2270.31	22
2271.25	24
2272.19	26.5
2273.14	21.5
2274.08	23.5
2275.02	21
2275.97	20.5
2276.91	22.5
2277.85	25
2278.8	25
2279.74	25
2280.68	23
2281.62	26.5
2282.56	21.5
2283.51	22.5
2284.45	25
2285.39	20
2286.33	20
2287.27	23.5
2288.21	23
2289.15	20
2290.09	25
2291.04	24.5
2291.98	25
2292.92	23.5
2293.86	19
2294.8	18.5
2295.74	25.5
2296.68	20.5
2297.62	19.5
2298.56	25
2299.5	20.5
2300.44	22
2301.37	23.5
2302.31	23.5
2303.25	29
2304.19	22
2305.13	24.5
2306.07	24
2307.01	24
2307.94	25.5
2308.88	23.5
2309.82	22.5
2310.76	22.5
2311.7	21.5
2312.63	23
2313.57	20
2314.51	21
2315.44	22
2316.38	23
2317.32	21
2318.26	24.5
2319.19	25
2320.13	21.5
2321.06	26
2322	26.5
2322.94	23.5
2323.87	24.5
2324.81	25
2325.74	21
2326.68	24
2327.61	20.5
2328.55	18.5
2329.48	22
2330.42	21.5
2331.35	25
2332.29	22.5
2333.22	25
2334.16	29.5
2335.09	21
2336.02	26
2336.96	21.5
2337.89	23.5
2338.83	21
2339.76	21.5
2340.69	18
2341.63	26.5
2342.56	25.5
2343.49	25.5
2344.42	20
2345.36	23.5
2346.29	24
2347.22	25
2348.15	22
2349.09	26
2350.02	26
2350.95	24
2351.88	17
2352.81	22
2353.74	20.5
2354.68	23
2355.61	26
2356.54	26
2357.47	22.5
2358.4	24
2359.33	22
2360.26	19.5
2361.19	20
2362.12	21
2363.05	23
2363.98	26
2364.91	21.5
2365.84	20.5
2366.77	26
2367.7	26.5
2368.63	20
2369.56	22
2370.49	21.5
2371.41	20.5
2372.34	19
2373.27	23
2374.2	22.5
2375.13	27.5
2376.06	27
2376.98	23.5
2377.91	23.5
2378.84	19
2379.77	23.5
2380.69	23
2381.62	20.5
2382.55	19.5
2383.47	25.5
2384.4	22
2385.33	23.5
2386.25	23
2387.18	24.5
2388.11	24
2389.03	25
2389.96	24.5
2390.89	20
2391.81	22.5
2392.74	24
2393.66	21
2394.59	21
2395.51	22.5
2396.44	21
2397.36	21
2398.29	24.5
2399.21	23
2400.14	28.5
2401.06	21
2401.99	24.5
2402.91	22.5
2403.83	21.5
2404.76	23.5
2405.68	23
2406.6	21.5
2407.53	25
2408.45	20.5
2409.37	22.5
2410.3	24
2411.22	22
2412.14	22
2413.06	27.5
2413.99	23.5
2414.91	26.5
2415.83	23.5
2416.75	23.5
2417.68	24
2418.6	27
2419.52	22.5
2420.44	21.5
2421.36	23
2422.28	22.5
2423.2	25
2424.12	24
2425.05	22
2425.97	26
2426.89	25
2427.81	25
2428.73	22
2429.65	21.5
2430.57	21
2431.49	19
2432.41	22
2433.33	19.5
2434.25	21
2435.17	22.5
2436.08	27
2437	26.5
2437.92	21.5
2438.84	22.5
2439.76	24
2440.68	23.5
2441.6	21
2442.51	24.5
2443.43	22.5
2444.35	21
2445.27	26
2446.19	23
2447.1	24.5
2448.02	26
2448.94	21
2449.85	23
2450.77	25
2451.69	22
2452.61	22
2453.52	25
2454.44	23
2455.35	27
2456.27	24.5
2457.19	24
2458.1	25.5
2459.02	24
2459.94	21
2460.85	26
2461.77	23
2462.68	28
2463.6	25
2464.51	25
2465.43	25.5
2466.34	23
2467.25	21.5
2468.17	26
2469.08	24
2470	21
2470.91	23.5
2471.83	23.5
2472.74	25
2473.65	22.5
2474.57	24
2475.48	25
2476.39	26
2477.31	25
2478.22	26
2479.13	27
2480.04	24.5
2480.96	24
2481.87	22.5
2482.78	25
2483.69	22.5
2484.6	23
2485.52	26.5
2486.43	22
2487.34	23
2488.25	25
2489.16	26.5
2490.07	23.5
2490.99	22.5
2491.9	24.5
2492.81	27
2493.72	23.5
2494.63	23
2495.54	24.5
2496.45	24
2497.36	24.5
2498.27	21
2499.18	25
2500.09	20
2501	25.5
2501.91	21.5
2502.82	27
2503.73	28.5
2504.63	24
2505.54	25
2506.45	27
2507.36	25
2508.27	23
2509.18	22.5
2510.09	23
2510.99	25.5
2511.9	20
2512.81	25
2513.72	24
2514.62	25
2515.53	22
2516.44	20
2517.35	25.5
2518.25	22
2519.16	24
2520.07	24
2520.97	22
2521.88	26
2522.79	26
2523.69	21
2524.6	25.5
2525.51	23.5
2526.41	25.5
2527.32	25.5
2528.22	21
2529.13	24
2530.03	23
2530.94	26
2531.84	22
2532.75	24
2533.65	24.5
2534.56	27.5
2535.46	23.5
2536.37	21.5
2537.27	24
2538.17	32
2539.08	23
2539.98	22
2540.89	24.5
2541.79	24
2542.69	21
2543.6	20.5
2544.5	24
2545.4	20.5
2546.31	25
2547.21	22.5
2548.11	26
2549.01	22.5
2549.92	25.5
2550.82	26.5
2551.72	26
2552.62	23
2553.52	21.5
2554.42	25.5
2555.33	24
2556.23	24
2557.13	24.5
2558.03	27
2558.93	22
2559.83	23.5
2560.73	21
2561.63	21
2562.53	25.5
2563.43	21
2564.33	25.5
2565.24	24
2566.13	26
2567.04	22
2567.93	26
2568.83	24
2569.73	31
2570.63	25.5
2571.53	24.5
2572.43	25.5
2573.33	23
2574.23	22.5
2575.13	23.5
2576.03	22
2576.92	25.5
2577.82	26
2578.72	23
2579.62	20
2580.52	21.5
2581.41	24
2582.31	27
2583.21	24.5
2584.11	21.5
2585	24.5
2585.9	24
2586.8	21.5
2587.69	26
2588.59	26.5
2589.49	24
2590.38	25.5
2591.28	27.5
2592.18	25.5
2593.07	23.5
2593.97	22
2594.86	24.5
2595.76	20
2596.66	24
2597.55	23
2598.45	23
2599.34	27
2600.24	23
2601.13	21.5
2602.03	23.5
2602.92	22
2603.81	25
2604.71	25.5
2605.6	25
2606.5	18.5
2607.39	26
2608.28	28
2609.18	24.5
2610.07	27
2610.97	26
2611.86	22.5
2612.75	22.5
2613.64	23
2614.54	23
2615.43	24.5
2616.32	24
2617.22	24
2618.11	24
2619	30.5
2619.89	27
2620.78	28
2621.68	25
2622.57	26
2623.46	21
2624.35	24
2625.24	25.5
2626.13	24
2627.02	27
2627.91	26
2628.81	24
2629.7	24
2630.59	26.5
2631.48	28
2632.37	27.5
2633.26	26
2634.15	25.5
2635.04	23
2635.93	20.5
2636.82	25.5
2637.71	22
2638.59	23.5
2639.48	25.5
2640.37	23
2641.26	28
2642.15	26
2643.04	26.5
2643.93	25
2644.82	27
2645.71	27.5
2646.59	26.5
2647.48	23
2648.37	26
2649.26	23
2650.15	22.5
2651.03	21
2651.92	23
2652.81	23
2653.69	23
2654.58	22.5
2655.47	25
2656.35	19
2657.24	24
2658.13	22.5
2659.01	24.5
2659.9	23
2660.79	27
2661.67	24.5
2662.56	23
2663.44	23
2664.33	24.5
2665.22	24
2666.1	26
2666.99	24.5
2667.87	24.5
2668.76	25.5
2669.64	23
2670.52	24
2671.41	24
2672.29	22.5
2673.18	23.5
2674.06	25
2674.95	20
2675.83	27.5
2676.71	21.5
2677.6	27
2678.48	21.5
2679.36	24
2680.25	26.5
2681.13	22.5
2682.01	25
2682.9	28.5
2683.78	25
2684.66	30.5
2685.55	23.5
2686.43	18
2687.31	24
2688.19	24.5
2689.07	27
2689.96	27.5
2690.84	22
2691.72	22
2692.6	24.5
2693.48	26
2694.36	22.5
2695.24	25.5
2696.12	23
2697	27
2697.89	23
2698.77	27
2699.65	22
2700.53	23
2701.41	26
2702.29	19.5
2703.17	27.5
2704.05	21.5
2704.93	22
2705.81	25
2706.69	22
2707.57	25
2708.44	19.5
2709.32	24
2710.2	27
2711.08	23
2711.96	22
2712.84	22
2713.72	17
2714.59	25
2715.47	24
2716.35	21
2717.23	26
2718.11	25.5
2718.98	26
2719.86	27
2720.74	26
2721.62	26
2722.49	21
2723.37	27.5
2724.25	23
2725.12	24
2726	23.5
2726.88	24
2727.75	24
2728.63	22.5
2729.51	23.5
2730.38	20
2731.26	22.5
2732.13	25.5
2733.01	27
2733.88	22
2734.76	25
2735.63	25
2736.51	24
2737.38	22.5
2738.26	26
2739.13	26
2740.01	23
2740.88	22.5
2741.76	24.5
2742.63	23.5
2743.5	24
2744.38	23
2745.25	20.5
2746.13	23.5
2747	28
2747.87	26
2748.75	23.5
2749.62	25
2750.49	25.5
2751.36	24.5
2752.24	26.5
2753.11	21
2753.98	21
2754.86	18
2755.73	20.5
2756.6	22
2757.47	23.5
2758.34	19
2759.22	21
2760.09	25.5
2760.96	24
2761.83	24.5
2762.7	25
2763.57	23.5
2764.44	25.5
2765.31	23.5
2766.18	27.5
2767.06	22
2767.93	27
2768.8	25
2769.67	21
2770.54	22
2771.41	24
2772.28	21
2773.15	21.5
2774.02	23.5
2774.89	23.5
2775.75	25
2776.62	24.5
2777.49	23
2778.36	24
2779.23	23.5
2780.1	24.5
2780.97	30.5
2781.84	24
2782.71	23
2783.57	24.5
2784.44	25.5
2785.31	21
2786.18	23.5
2787.04	24
2787.91	26
2788.78	25
2789.65	23
2790.51	20.5
2791.38	22
2792.25	22
2793.12	25
2793.98	26
2794.85	26.5
2795.72	27.5
2796.58	27
2797.45	24.5
2798.31	25.5
2799.18	22.5
2800.05	21.5
2800.91	22
2801.78	20
2802.64	26
2803.51	30
2804.37	24
2805.24	28
2806.1	22
2806.97	25.5
2807.83	29
2808.7	25.5
2809.56	31
2810.43	21
2811.29	22
2812.15	23
2813.02	25.5
2813.88	25.5
2814.75	25
2815.61	24
2816.47	22
2817.34	25
2818.2	23
2819.06	28.5
2819.92	26.5
2820.79	23
2821.65	23.5
2822.51	27
2823.37	25.5
2824.24	27.5
2825.1	19
2825.96	22
2826.82	24.5
2827.69	26
2828.55	25
2829.41	29
2830.27	25.5
2831.13	24
2831.99	25.5
2832.85	24
2833.71	25
2834.58	24
2835.44	27
2836.3	25.5
2837.16	24.5
2838.02	23
2838.88	23
2839.74	26
2840.6	25
2841.46	29
2842.32	26
2843.18	24.5
2844.04	25.5
2844.9	25
2845.75	24
2846.61	24.5
2847.47	23.5
2848.33	21.5
2849.19	28.5
2850.05	26
2850.91	25.5
2851.77	28.5
2852.62	23.5
2853.48	24.5
2854.34	21
2855.2	26
2856.06	24
2856.91	23
2857.77	27
2858.63	24.5
2859.48	24
2860.34	25.5
2861.2	23.5
2862.06	31
2862.91	23
2863.77	24.5
2864.63	26
2865.48	24
2866.34	28.5
2867.19	23
2868.05	25
2868.91	27.5
2869.76	24
2870.62	24
2871.47	26.5
2872.33	26
2873.18	29.5
2874.04	31
2874.89	29
2875.75	23
2876.6	27
2877.46	30.5
2878.31	29
2879.17	27.5
2880.02	32
2880.88	24
2881.73	30
2882.58	29
2883.44	31
2884.29	28
2885.14	28
2886	28
2886.85	29
2887.7	31
2888.56	35
2889.41	31.5
2890.26	33
2891.12	38
2891.97	33.5
2892.82	37
2893.67	34.5
2894.52	36.5
2895.38	36
2896.23	37
2897.08	45.5
2897.93	39
2898.78	43
2899.64	46.5
2900.49	48
2901.34	47.5
2902.19	53.5
2903.04	53
2903.89	53
2904.74	51
2905.59	52.5
2906.44	49
2907.29	54.5
2908.14	51
2908.99	52.5
2909.84	51.5
2910.69	49.5
2911.54	51.5
2912.39	46.5
2913.24	41
2914.09	41.5
2914.94	38
2915.79	40.5
2916.64	40.5
2917.49	36.5
2918.34	37.5
2919.18	32
2920.03	36.5
2920.88	34.5
2921.73	35
2922.58	25
2923.42	26
2924.27	27.5
2925.12	28.5
2925.97	30.5
2926.82	27.5
2927.66	25.5
2928.51	28.5
2929.36	27
2930.2	31
2931.05	25
2931.9	27
2932.74	28.5
2933.59	29.5
2934.44	27.5
2935.28	28
2936.13	26
2936.98	25.5
2937.82	25.5
2938.67	28
2939.51	28
2940.36	29
2941.2	24.5
2942.05	23
2942.9	26.5
2943.74	24.5
2944.58	26
2945.43	26
2946.27	23.5
2947.12	26
2947.96	29.5
2948.81	31
2949.65	26
2950.5	26
2951.34	28
2952.18	29
2953.03	30
2953.87	24.5
2954.71	29
2955.56	25.5
2956.4	26.5
2957.24	30.5
2958.09	31.5
2958.93	33
2959.77	35
2960.62	30.5
2961.46	34
2962.3	36.5
2963.14	38
2963.98	29
2964.83	41
2965.67	33.5
2966.51	32
2967.35	37
2968.19	36
2969.04	34.5
2969.88	35
2970.72	34.5
2971.56	31.5097
2972.4	28.0201
2973.24	28.042
2974.08	28.1371
2974.92	34.8908
2975.76	30.844
2976.6	27.6701
2977.44	31.4925
2978.28	27.3104
2979.12	28.7453
2979.96	29.615
2980.8	30.8859
2981.64	27.2249
2982.48	26.1536
2983.32	26.1797
2984.16	25.6988
2985	25.8573
2985.84	26.5784
2986.68	24.5282
2987.52	25.6283
2988.35	22.9931
2989.19	25.861
2990.03	24.3903
2990.87	23.6822
2991.71	23.2864
2992.55	25.8908
2993.38	27.0002
2994.22	23.117
2995.06	25.4555
2995.9	25.1886
2996.73	22.2794
2997.57	21.7043
2998.41	26.1036
2999.25	23.4056
3000.08	24.6602
3000.92	24.1881
3001.76	22.3716
3002.59	22.5641
3003.43	23.1176
3004.27	23.469
3005.1	21.9885
3005.94	22.9862
3006.78	22.6669
3007.61	23.8042
3008.45	23.2458
3009.28	21.2349
3010.12	22.321
3010.95	26.4772
3011.79	24.5641
3012.62	22.2963
3013.46	19.0053
3014.29	24.1397
3015.13	25.3569
3015.96	25.157
3016.8	25.6818
3017.63	19.9904
3018.47	20.389
3019.3	21.1903
3020.14	22.3894
3020.97	23.0218
3021.8	22.9822
3022.64	22.809
3023.47	21.8488
3024.3	22.145
3025.14	22.7859
3025.97	21.4894
3026.8	21.5178
3027.64	24.5556
3028.47	22.2825
3029.3	23.0814
3030.14	23.7516
3030.97	23.9981
3031.8	23.5385
3032.63	23.1871
3033.46	21.2935
3034.3	22.2372
3035.13	23.4456
3035.96	24.172
3036.79	24.3854
3037.62	22.1853
3038.46	21.7533
3039.29	22.5814
3040.12	22.6838
3040.95	23.5247
3041.78	21.8921
3042.61	22.3144
3043.44	23.675
3044.27	22.5025
3045.1	23.6027
3045.93	23.793
3046.76	24.855
3047.59	22.3081
3048.42	21.7057
3049.25	21.116
3050.08	22.5566
3050.91	23.1485
3051.74	22.5536
3052.57	23.215
3053.4	21.1082
3054.23	20.6616
3055.06	22.2857
3055.89	23.0073
3056.72	22.1661
3057.32	20
3058.15	21
3058.98	22
3059.82	27
3060.65	18.5
3061.48	22.5
3062.31	20
3063.15	24.5
3063.98	19.5
3064.81	21.5
3065.64	18
3066.48	24
3067.31	25
3068.14	23
3068.97	25
3069.8	21.5
3070.63	21
3071.47	21.5
3072.3	15
3073.13	23.5
3073.96	21.5
3074.79	22
3075.62	22
3076.45	20
3077.28	22
3078.11	21.5
3078.94	21
3079.77	23
3080.6	24.5
3081.43	22.5
3082.26	21
3083.09	23
3083.92	21
3084.75	21
3085.58	23
3086.41	21.5
3087.24	20.5
3088.07	23
3088.9	24.5
3089.73	22.5
3090.55	24
3091.38	23
3092.21	24.5
3093.04	21.5
3093.87	23
3094.7	25
3095.52	22.5
3096.35	20
3097.18	23
3098.01	23.5
3098.84	23
3099.66	20
3100.49	23
3101.32	22
3102.14	21
3102.97	21
3103.8	22.5
3104.62	20
3105.45	24
3106.28	22
3107.1	19.5
3107.93	23.5
3108.76	22.5
3109.58	21
3110.41	23.5
3111.23	23
3112.06	20
3112.89	19
3113.71	20.5
3114.54	22.5
3115.36	18
3116.19	21.5
3117.01	22.5
3117.84	24
3118.66	22
3119.49	26.5
3120.31	21
3121.13	22.5
3121.96	21
3122.78	23.5
3123.61	25.5
3124.43	28
3125.25	24
3126.08	26.5
3126.9	19
3127.73	21
3128.55	23
3129.37	21.5
3130.19	24.5
3131.02	22.5
3131.84	21
3132.66	26
3133.49	21.5
3134.31	24
3135.13	21.5
3135.95	23
3136.78	24.5
3137.6	23
3138.42	21.5
3139.24	20
3140.06	29
3140.88	23.5
3141.71	23
3142.53	21.5
3143.35	24.5
3144.17	24
3144.99	23
3145.81	26.5
3146.63	24.5
3147.45	21.5
3148.27	22
3149.09	26
3149.91	23.5
3150.73	25.5
3151.56	26
3152.37	26.5
3153.2	22.5
3154.01	21
3154.83	21.5
3155.65	25.5
3156.47	23
3157.29	26
3158.11	25
3158.93	19
3159.75	23.5
3160.57	23.5
3161.39	24.5
3162.21	24
3163.02	20
3163.84	22.5
3164.66	22
3165.48	25
3166.3	24
3167.11	23
3167.93	23.5
3168.75	19
3169.57	22.5
3170.39	22.5
3171.2	25
3172.02	21.5
3172.84	22
3173.65	23
3174.47	22.5
3175.29	21
3176.1	26.5
3176.92	20.5
3177.74	19.5
3178.55	20.5
3179.37	24
3180.19	22
3181	23.5
3181.82	23
3182.63	25
3183.45	22.5
3184.27	22
3185.08	23
3185.9	23.5
3186.71	25.5
3187.53	26
3188.34	20.5
3189.16	22
3189.97	24.5
3190.79	22
3191.6	23
3192.41	19
3193.23	24.5
3194.04	25.5
3194.86	21.5
3195.67	19
3196.48	21
3197.3	24
3198.11	20.5
3198.93	21.5
3199.74	22
3200.55	21.5
3201.36	22
3202.18	23.5
3202.99	25
3203.8	26
3204.62	24
3205.43	26
3206.24	21.5
3207.05	25
3207.87	26.5
3208.68	23
3209.49	22.5
3210.3	20
3211.11	20
3211.93	21.5
3212.74	24
3213.55	26
3214.36	18.5
3215.17	19
3215.98	24.5
3216.79	23.5
3217.6	20.5
3218.41	19.5
3219.22	25.5
3220.03	21.5
3220.85	20
3221.66	20
3222.47	22
3223.28	24.5
3224.09	23
3224.9	25
3225.71	21
3226.52	22
3227.33	21
3228.13	22
3228.94	21.5
3229.75	25
3230.56	27
3231.37	23
3232.18	23.5
3232.99	23
3233.8	24
3234.61	24.5
3235.41	22
3236.22	24.5
3237.03	21.5
3237.84	23
3238.65	24
3239.45	24
3240.26	22
3241.07	25
3241.88	24.5
3242.68	26.5
3243.49	22.5
3244.3	26
3245.1	26.5
3245.91	20.5
3246.72	23.5
3247.53	23
3248.33	21.5
3249.14	25.5
3249.95	22
3250.75	23
3251.56	23
3252.36	23.5
3253.17	24
3253.97	22.5
3254.78	20.5
3255.59	27
3256.39	22.5
3257.2	26
3258	26.5
3258.81	23.5
3259.61	22.5
3260.42	19
3261.22	21.5
3262.03	22
3262.83	26
3263.64	24
3264.44	24
3265.24	25
3266.05	25
3266.85	22.5
3267.66	22.5
3268.46	20
3269.26	21.5
3270.07	19
3270.87	25
3271.67	23.5
3272.48	22
3273.28	20
3274.08	24.5
3274.89	25
3275.69	24
3276.49	21.5
3277.29	23
3278.1	24.5
3278.9	24.5
3279.7	24.5
3280.5	23.5
3281.3	24
3282.11	23
3282.91	23.5
3283.71	23.5
3284.51	22
3285.31	23.5
3286.11	23.5
3286.91	25
3287.72	18
3288.52	23
3289.32	22.5
3290.12	21
3290.92	23
3291.72	25
3292.52	20.5
3293.32	25.5
3294.12	20.5
3294.92	22.5
3295.72	26
3296.52	26.5
3297.32	23.5
3298.12	23
3298.92	26
3299.72	21.5
3300.52	22
3301.32	24
3302.12	21
3302.92	21.5
3303.71	23
3304.51	21
3305.31	24
3306.11	25
3306.91	22.5
3307.71	22
3308.5	23
3309.3	19.5
3310.1	26
3310.9	26
3311.7	25
3312.49	25
3313.29	28
3314.09	18
3314.89	22
3315.68	23.5
3316.48	25
3317.28	26.5
3318.07	24
3318.87	22
3319.67	23
3320.46	22
3321.26	27
3322.06	26
3322.85	23
3323.65	25.5
3324.44	21.5
3325.24	24
3326.04	23.5
3326.83	21
3327.63	24.5
3328.42	17.5
3329.22	23.5
3330.01	20
3330.81	21.5
3331.6	24.5
3332.4	22
3333.19	23.5
3333.99	27
3334.78	24
3335.58	23
3336.37	23.5
3337.17	21.5
3337.96	24.5
3338.75	23
3339.55	24
3340.34	25.5
3341.13	26.5
3341.93	23
3342.72	22.5
3343.51	23.5
3344.31	27
3345.1	22
3345.89	23.5
3346.69	21.5
3347.48	25.5
3348.27	23
3349.06	27
3349.86	24.5
3350.65	23.5
3351.44	24
3352.23	25.5
3353.03	23.5
3353.82	25.5
3354.61	24.5
3355.4	21
3356.19	21
3356.98	25
3357.78	25
3358.57	26
3359.36	22
3360.15	22.5
3360.94	24
3361.73	26.5
3362.52	23
3363.31	22.5
3364.1	20.5
3364.89	22.5
3365.68	22.5
3366.47	21
3367.26	26
3368.05	25.5
3368.84	23
3369.63	23
3370.42	21
3371.21	23
3372	22
3372.79	19.5
3373.58	22.5
3374.37	25
3375.16	26
3375.95	24.5
3376.73	23
3377.52	28.5
3378.31	24
3379.1	23
3379.89	27
3380.68	21
3381.46	19
3382.25	23
3383.04	26
3383.83	28
3384.62	20
3385.4	26.5
3386.19	25
3386.98	24
3387.76	21
3388.55	23.5
3389.34	24
3390.13	23
3390.91	21
3391.7	24
3392.49	23.5
3393.27	24
3394.06	27
3394.84	24
3395.63	25.5
3396.42	24
3397.2	21
3397.99	21.5
3398.77	24
3399.56	22.5
3400.34	23
3401.13	27.5
3401.92	25.5
3402.7	23
3403.49	24
3404.27	22
3405.06	23
3405.84	25.5
3406.62	21
3407.41	27.5
3408.19	23.5
3408.98	25
3409.76	22
3410.55	22
3411.33	28
3412.11	23
3412.9	27
3413.68	29
3414.46	24.5
3415.25	23
3416.03	21
3416.81	22
3417.6	21
3418.38	22
3419.16	24.5
3419.95	24.5
3420.73	20.5
3421.51	24
3422.29	25.5
3423.08	23
3423.86	26.5
3424.64	18.5
3425.42	22.5
3426.2	24.5
3426.98	20
3427.77	23.5
3428.55	23.5
3429.33	24
3430.11	21.5
3430.89	23.5
3431.67	28.5
3432.45	20
3433.24	25
3434.02	22.5
3434.8	20.5
3435.58	27
3436.36	23
3437.14	24
3437.92	25.5
3438.7	23.5
3439.48	22.5
3440.26	23.5
3441.04	23.5
3441.82	26
3442.6	23
3443.38	20.5
3444.16	24.5
3444.94	22
3445.71	28
3446.49	19.5
3447.27	27.5
3448.05	21
3448.83	22.5
3449.61	23.5
3450.39	24
3451.17	17
3451.94	23
3452.72	26.5
3453.5	23
3454.28	23.5
3455.06	22.5
3455.83	23
3456.61	21
3457.39	20
3458.17	24
3458.94	25.5
3459.72	21
3460.5	25
3461.28	24.5
3462.05	25
3462.83	22
3463.61	23
3464.38	18
3465.16	25
3465.93	24.5
3466.71	26.5
3467.49	24
3468.26	22.5
3469.04	25
3469.82	24
3470.59	23
3471.37	23.5
3472.14	20.5
3472.92	23
3473.69	26.5
3474.47	22
3475.24	23
3476.02	20
3476.79	26
3477.57	26
3478.34	24
3479.12	26.5
3479.89	27
3480.67	23
3481.44	23.5
3482.21	24
3482.99	24.5
3483.76	22
3484.54	26
3485.31	22
3486.08	23.5
3486.86	23
3487.63	25
3488.4	21
3489.18	24
3489.95	23.5
3490.72	22.5
3491.5	22
3492.27	21.5
3493.04	23
3493.81	26
3494.59	25
3495.36	25.5
3496.13	24
3496.9	20.5
3497.67	25
3498.45	22.5
3499.22	23.5
3499.99	23
