#Acq. time (s)=	3
#Accumulations=	3
#Range (cm-¹)=	100...3000
#Windows=	3
#Autofocus=	Off
#AutoExposure=	Off
#Spike filter=	Multiple accum.
#Delay time (s)=	0
#Binning=	1
#Readout mode=	Signal
#DeNoise=	Off
#ICS correction=	Off
#Dark correction=	Off
#Inst. Process=	Off
#Instrument=	LabRAM HR Evol
#Detector=	Syncerity OE
#Objective=	x100_VIS_LWD
#Grating=	600 (500nm)
#ND Filter=	25%
#Laser=	633nm_Edge
#Hole=	100.021
#Range=	Visible
#Project=	Bolus
#Sample=	A5
#Site=	stripside
#Title=	m01
#Remark=	
#Date=	03.11.2025 16:14
#Acquired=	03.11.2025 16:14:31
100.969	22
102.252	35
103.535	38
104.818	37
106.101	32
107.384	35
108.666	28
109.948	33
111.232	30
112.514	31
113.795	32
115.077	33
116.358	30
117.639	30
118.919	30
120.2	29
121.48	34
122.76	33
124.04	32
125.32	32
126.599	32
127.879	31
129.158	35
130.436	37
131.715	36
132.992	33
134.27	39
135.548	34
136.826	37
138.104	34
139.381	40
140.658	32
141.935	38
143.212	33
144.489	40
145.763	34
147.04	35
148.315	44
149.591	40
150.867	40
152.142	40
153.416	43
154.691	40
155.965	39
157.24	42
158.514	39
159.786	40
161.06	44
162.334	39
163.607	47
164.881	34
166.152	36
167.425	43
168.698	34
169.969	40
171.241	40
172.513	38
173.785	38
175.055	38
176.326	40
177.597	38
178.867	36
180.137	36
181.408	42
182.677	40
183.947	39
185.217	39
186.485	38
187.755	34
189.022	41
190.291	38
191.56	47
192.828	45
194.096	34
195.363	42
196.631	36
197.899	42
199.165	34
200.432	38
201.698	38
202.965	38
204.23	38
205.497	36
206.762	37
208.028	30
209.293	36
210.559	32
211.823	38
213.088	40
214.352	33
215.617	36
216.88	36
218.145	38
219.408	32
220.672	35
221.934	34
223.196	35
224.46	32
225.722	34
226.985	34
228.246	30
229.508	32
230.77	34
232.031	36
233.292	34
234.554	33
235.814	30
237.074	32
238.335	34
239.595	26
240.854	35
242.115	33
243.374	26
244.633	33
245.893	28
247.151	33
248.409	34
249.667	32
250.927	29
252.184	30
253.442	32
254.699	32
255.957	30
257.214	31
258.47	35
259.727	30
260.983	35
262.24	30
263.496	36
264.752	31
266.007	34
267.262	38
268.517	36
269.773	29
271.028	29
272.282	27
273.536	30
274.79	32
276.044	30
277.297	33
278.551	31
279.804	28
281.057	36
282.31	28
283.564	36
284.816	33
286.068	32
287.32	28
288.572	28
289.823	34
291.074	38
292.325	28
293.576	32
294.827	26
296.077	26
297.328	30
298.578	32
299.828	30
301.077	28
302.325	30
303.575	32
304.824	32
306.073	22
307.321	30
308.57	28
309.818	34
311.066	28
312.314	31
313.562	34
314.808	30
316.055	32
317.302	32
318.549	28
319.796	35
321.042	33
322.288	28
323.533	32
324.779	35
326.024	32
327.27	29
328.515	34
329.759	32
331.004	34
332.248	29
333.493	30
334.736	32
335.98	32
337.223	30
338.466	33
339.709	31
340.952	34
342.195	28
343.437	31
344.68	30
345.922	29
347.163	30
348.405	33
349.647	28
350.887	30
352.128	30
353.37	33
354.609	35
355.85	33
357.089	28
358.33	26
359.57	31
360.809	30
362.049	26
363.287	30
364.526	30
365.764	30
367.003	26
368.241	33
369.479	30
370.718	28
371.955	37
373.193	28
374.429	31
375.667	35
376.903	30
378.139	31
379.376	31
380.611	29
381.848	33
383.083	26
384.319	31
385.554	30
386.79	31
388.024	28
389.258	28
390.493	30
391.727	28
392.962	30
394.195	33
395.428	30
396.663	28
397.895	32
399.128	32
400.361	30
401.593	32
402.825	36
404.058	34
405.29	35
406.521	30
407.752	28
408.985	30
410.215	34
411.446	33
412.678	32
413.908	22
415.138	32
416.367	27
417.597	26
418.828	32
420.057	27
421.286	33
422.514	34
423.743	28
424.973	27
426.201	36
427.429	34
428.657	29
429.884	32
431.112	29
432.34	28
433.567	28
434.794	30
436.02	30
437.247	34
438.473	32
439.699	28
440.925	31
442.15	35
443.376	30
444.601	28
445.826	34
447.051	33
448.275	35
449.5	33
450.724	25
451.948	30
453.172	32
454.396	31
455.619	34
456.842	33
458.065	33
459.288	33
460.511	30
461.733	38
462.956	30
464.178	35
465.4	35
466.621	28
467.843	33
469.064	33
470.285	40
471.505	37
472.726	34
473.946	38
475.166	41
476.387	36
477.606	34
478.825	38
480.044	47
481.264	50
482.483	56
483.702	50
484.921	57
486.138	58
487.356	59
488.574	53
489.792	46
491.009	62
492.226	52
493.444	56
494.661	50
495.877	46
497.094	44
498.31	52
499.525	45
500.741	44
501.958	41
503.172	42
504.388	40
505.603	39
506.817	34
508.032	32
509.247	41
510.46	35
511.675	37
512.888	39
514.102	30
515.316	40
516.528	32
517.742	38
518.954	33
520.167	34
521.378	35
522.591	36
523.802	35
525.015	29
526.226	33
527.438	35
528.648	31
529.86	35
531.07	33
532.281	38
533.491	36
534.702	29
535.911	37
537.121	30
538.33	32
539.54	30
540.749	36
541.957	22
543.167	38
544.375	34
545.584	28
546.791	34
547.999	32
549.207	32
550.414	32
551.621	27
552.829	30
554.035	28
555.241	34
556.449	30
557.655	32
558.86	34
560.066	28
561.272	36
562.477	33
563.682	34
564.888	30
566.093	32
567.297	32
568.501	36
569.705	31
570.91	32
572.114	26
573.317	32
574.52	30
575.723	32
576.927	26
578.13	27
579.332	30
580.535	33
581.737	29
582.938	35
584.14	29
585.343	28
586.544	30
587.745	34
588.946	33
590.147	30
591.347	35
592.548	32
593.748	31
594.948	34
596.147	34
597.347	32
598.546	31
599.745	32
600.944	34
602.143	30
603.342	29
604.54	29
605.738	36
606.937	35
608.134	30
609.332	28
610.529	32
611.727	34
612.924	26
614.121	29
615.317	34
616.513	30
617.709	33
618.905	32
620.101	34
621.297	32
622.492	29
623.688	30
624.883	30
626.077	32
627.271	32
628.466	33
629.66	34
630.855	34
632.047	24
633.241	38
634.435	29
635.629	28
636.82	28
638.014	30
639.207	31
640.399	34
641.59	30
642.783	28
643.975	26
645.166	41
646.357	32
647.549	30
648.741	31
649.93	33
651.122	30
652.311	28
653.502	32
654.692	38
655.881	34
657.071	30
658.261	33
659.45	29
660.639	36
661.827	30
663.016	35
664.204	34
665.393	30
666.581	28
667.769	33
668.957	33
670.143	30
671.331	32
672.518	32
673.705	40
674.891	34
676.078	28
677.264	36
678.451	36
679.636	34
680.821	34
682.007	33
683.192	32
684.378	34
685.562	29
686.747	42
687.931	35
689.115	38
690.3	28
691.483	36
692.666	34
693.851	36
695.034	34
696.216	36
697.4	34
698.582	38
699.764	39
700.948	40
702.129	38
703.311	44
704.493	38
705.674	45
706.855	50
708.036	45
709.218	48
710.399	52
711.579	50
712.759	38
713.939	44
715.12	41
716.299	32
717.478	35
718.657	30
719.836	33
721.015	33
722.195	26
723.373	26
724.552	36
725.729	36
726.907	32
728.085	38
729.262	32
730.44	26
731.617	34
732.795	30
733.972	29
735.148	34
736.324	30
737.501	31
738.677	37
739.852	35
741.028	29
742.203	35
743.379	30
744.554	37
745.729	26
746.903	30
748.078	33
749.252	28
750.426	35
751.599	32
752.772	30
753.946	29
755.119	26
756.293	28
757.466	30
758.639	28
759.811	32
760.984	30
762.155	31
763.327	29
764.499	28
765.67	33
766.842	31
768.013	32
769.183	33
770.354	31
771.525	32
772.696	34
773.865	34
775.035	31
776.205	34
777.375	32
778.544	30
779.713	32
780.882	34
782.052	36
783.219	34
784.388	30
785.557	34
786.724	35
787.892	34
789.06	34
790.227	34
791.395	30
792.562	33
793.728	32
794.895	31
796.061	29
797.228	32
798.395	31
799.56	33
800.726	30
801.891	32
803.057	31
804.221	30
805.387	29
806.551	30
807.716	32
808.879	28
810.044	35
811.208	30
812.372	30
813.535	32
814.699	32
815.862	34
817.025	24
818.188	28
819.351	31
820.513	31
821.675	30
822.837	30
823.999	29
825.161	32
826.322	34
827.483	25
828.645	32
829.805	33
830.966	33
832.127	32
833.287	30
834.447	26
835.607	34
836.767	30
837.926	29
839.085	29
840.245	28
841.404	30
842.562	33
843.72	24
844.88	27
846.038	32
847.195	31
848.353	28
849.512	33
850.669	31
851.826	26
852.983	25
854.139	34
855.296	30
856.453	29
857.609	34
858.765	33
859.921	30
861.077	29
862.232	35
863.387	31
864.542	32
865.697	29
866.852	36
868.008	30
869.162	32
870.316	34
871.47	28
872.624	30
873.778	28
874.931	34
876.084	32
877.237	27
878.39	36
879.543	32
880.695	22
881.846	32
882.999	30
884.151	33
885.302	24
886.454	29
887.606	30
888.757	31
889.908	26
891.059	32
892.21	27
893.359	30
894.509	30
895.659	26
896.81	32
897.959	32
899.109	34
900.257	25
901.407	32
902.556	26
903.705	29
904.854	30
906.001	34
907.149	28
908.298	27
909.446	30
910.592	27
911.74	24
912.888	28
914.034	28
915.181	29
916.328	29
917.473	31
918.62	27
919.766	30
920.911	26
922.058	28
923.204	33
924.348	22
925.494	32
926.638	31
927.783	34
928.928	32
930.072	28
931.216	30
932.36	32
933.504	28
934.647	33
935.791	30
936.933	27
938.077	27
939.219	34
940.363	31
941.504	29
942.647	29
943.789	29
944.932	28
946.073	30
947.215	30
948.356	33
949.498	26
950.638	28
951.778	30
952.92	32
954.06	30
955.199	20
956.34	28
957.479	31
958.62	26
959.759	30
960.898	26
962.038	35
963.176	27
964.315	28
965.453	29
966.592	26
967.73	33
968.867	28
970.006	32
971.144	33
972.281	34
973.418	28
974.554	32
975.692	34
976.829	28
977.965	28
979.101	32
980.237	34
981.374	28
982.509	30
983.645	29
984.78	31
985.915	30
987.05	28
988.184	26
989.319	33
990.453	27
991.589	26
992.722	28
993.856	30
994.99	28
996.123	31
997.257	22
998.39	24
999.523	30
1000.66	30
1001.79	30
1002.92	35
1004.05	30
1005.18	32
1006.32	26
1007.45	24
1008.58	33
1009.71	30
1010.84	31
1011.97	27
1013.1	29
1014.23	30
1015.36	26
1016.49	27
1017.62	32
1018.75	33
1019.88	28
1021.01	31
1022.14	29
1023.27	27
1024.4	33
1025.53	30
1026.66	28
1027.79	28
1028.91	32
1030.04	29
1031.17	28
1032.3	26
1033.42	28
1034.55	27
1035.68	30
1036.81	32
1037.93	32
1039.06	26
1040.18	32
1041.31	25
1042.44	30
1043.56	30
1044.69	29
1045.81	30
1046.94	28
1048.06	27
1049.19	28
1050.31	24
1051.44	32
1052.56	32
1053.69	31
1054.81	26
1055.93	29
1057.06	30
1058.18	33
1059.3	26
1060.43	30
1061.55	28
1062.67	30
1063.79	26
1064.92	28
1066.04	30
1067.16	24
1068.28	31
1069.4	28
1070.52	26
1071.65	28
1072.77	32
1073.89	30
1075.01	31
1076.13	29
1077.25	29
1078.37	31
1079.49	26
1080.61	30
1081.73	30
1082.85	30
1083.97	32
1085.09	24
1086.2	20
1087.32	30
1088.44	25
1089.56	28
1090.68	30
1091.8	30
1092.91	26
1094.03	28
1095.15	33
1096.26	31
1097.38	30
1098.5	28
1099.61	28
1100.73	30
1101.85	27
1102.96	28
1104.08	27
1105.19	28
1106.31	30
1107.43	30
1108.54	32
1109.66	28
1110.77	28
1111.88	27
1113	25
1114.11	32
1115.23	29
1116.34	27
1117.46	26
1118.57	24
1119.68	30
1120.8	25
1121.91	28
1123.02	27
1124.13	32
1125.25	28
1126.36	31
1127.47	26
1128.58	28
1129.69	28
1130.8	32
1131.92	27
1133.03	22
1134.14	29
1135.25	27
1136.36	26
1137.47	28
1138.58	27
1139.69	28
1140.8	31
1141.91	32
1143.02	26
1144.13	27
1145.24	24
1146.35	26
1147.46	30
1148.56	24
1149.67	27
1150.78	24
1151.89	31
1153	31
1154.1	26
1155.21	26
1156.32	28
1157.43	30
1158.53	26
1159.64	26
1160.75	32
1161.85	24
1162.96	26
1164.07	30
1165.17	33
1166.28	30
1167.38	26
1168.49	24
1169.59	30
1170.7	22
1171.8	28
1172.91	28
1174.01	31
1175.12	30
1176.22	32
1177.32	29
1178.43	31
1179.53	26
1180.64	28
1181.74	24
1182.84	26
1183.94	28
1185.05	28
1186.15	34
1187.25	28
1188.35	33
1189.46	30
1190.56	27
1191.66	22
1192.76	28
1193.86	28
1194.96	26
1196.06	28.9755
1197.16	25.9623
1198.26	26.8882
1199.37	25.9771
1200.47	27.0927
1201.57	30.8285
1202.67	31.6521
1203.77	28.8529
1204.86	24.4271
1205.96	29.8968
1207.06	29.53
1208.16	27.0116
1209.26	26.302
1210.36	24.3299
1211.46	27.6442
1212.56	24.3791
1213.65	26.0843
1214.75	28.9748
1215.85	30.6311
1216.95	30.2274
1218.04	26.2114
1219.14	29.9461
1220.24	29.1176
1221.33	24.6725
1222.43	27.8908
1223.53	27.9753
1224.62	30.4804
1225.72	26.6901
1226.82	30.8723
1227.91	25.5912
1229.01	27.49
1230.1	24.9516
1231.2	27.7787
1232.29	28.7045
1233.39	27.2641
1234.48	28.3753
1235.58	31.0685
1236.67	28.8795
1237.77	30.5612
1238.86	27.0908
1239.95	27.8064
1241.05	27.9313
1242.14	29.8805
1243.23	24.6974
1244.33	28.6516
1245.42	29.6656
1246.51	28.8201
1247.61	26.1602
1248.7	27.4822
1249.79	28.5147
1250.88	28.0056
1251.97	29.3458
1253.07	27.9564
1254.16	30.8647
1255.25	25.4752
1256.34	28.3092
1257.43	29.2322
1258.52	26.0539
1259.61	28
1260.7	30.2503
1261.79	29.1486
1262.88	24.7691
1263.97	27.328
1265.06	31.3302
1266.15	27.9383
1267.24	27.5363
1268.33	29.9969
1269.42	28.0023
1270.51	28.0147
1271.6	29.1653
1272.68	29.4882
1273.77	25.8302
1274.86	25.3203
1275.95	24.6095
1277.04	27.1511
1278.12	26.3662
1279.21	25.1511
1280.3	26.4804
1281.39	26.2304
1282.47	26.2952
1283.56	25.0667
1284.65	24.2608
1285.73	24.4775
1286.82	24.3219
1287.91	27.812
1288.99	24.2023
1290.08	28.1299
1291.16	29.1263
1292.25	29.885
1293.33	28.1251
1294.42	26.9947
1295.5	27.1188
1296.59	32.4764
1297.67	26.858
1298.76	28.1158
1299.84	26.8823
1300.92	28.8491
1302.01	27.538
1303.09	24.8418
1304.17	29.6063
1305.26	26.2068
1306.34	28.0098
1307.34	28
1308.43	30
1309.52	26
1310.61	24
1311.7	31
1312.78	29
1313.87	22
1314.96	24
1316.04	29
1317.13	33
1318.22	30
1319.3	28
1320.39	29
1321.48	30
1322.56	28
1323.65	27
1324.73	29
1325.82	30
1326.9	22
1327.99	30
1329.07	29
1330.16	26
1331.24	28
1332.33	22
1333.41	26
1334.5	24
1335.58	30
1336.66	23
1337.75	24
1338.83	29
1339.91	30
1341	26
1342.08	28
1343.16	28
1344.24	29
1345.33	24
1346.41	30
1347.49	27
1348.57	22
1349.65	24
1350.74	26
1351.82	27
1352.9	28
1353.98	30
1355.06	30
1356.14	28
1357.22	28
1358.3	30
1359.38	30
1360.46	27
1361.54	30
1362.62	26
1363.7	26
1364.78	27
1365.86	27
1366.94	28
1368.02	20
1369.09	25
1370.17	27
1371.25	27
1372.33	24
1373.41	22
1374.48	31
1375.56	28
1376.64	28
1377.72	26
1378.79	26
1379.87	27
1380.95	30
1382.02	30
1383.1	30
1384.17	26
1385.25	28
1386.33	24
1387.4	30
1388.48	32
1389.55	29
1390.63	30
1391.7	29
1392.78	32
1393.85	30
1394.93	27
1396	31
1397.07	24
1398.15	32
1399.22	26
1400.3	30
1401.37	28
1402.44	31
1403.52	30
1404.59	30
1405.66	32
1406.73	34
1407.81	27
1408.88	34
1409.95	26
1411.02	31
1412.09	30
1413.17	24
1414.24	36
1415.31	32
1416.38	37
1417.45	34
1418.52	29
1419.59	30
1420.66	28
1421.73	30
1422.8	26
1423.87	30
1424.94	30
1426.01	26
1427.08	24
1428.15	28
1429.22	33
1430.29	28
1431.35	28
1432.42	27
1433.49	26
1434.56	24
1435.63	30
1436.69	35
1437.76	28
1438.83	30
1439.9	26
1440.96	32
1442.03	30
1443.1	30
1444.17	28
1445.23	27
1446.3	29
1447.36	32
1448.43	27
1449.49	28
1450.56	29
1451.63	32
1452.69	29
1453.76	31
1454.82	26
1455.89	30
1456.95	28
1458.01	28
1459.08	22
1460.14	32
1461.21	28
1462.27	30
1463.34	26
1464.4	26
1465.46	28
1466.52	27
1467.59	27
1468.65	28
1469.71	26
1470.77	30
1471.84	29
1472.9	25
1473.96	30
1475.02	26
1476.08	28
1477.15	24
1478.21	32
1479.27	25
1480.33	26
1481.39	34
1482.45	27
1483.51	24
1484.57	30
1485.63	26
1486.69	32
1487.75	26
1488.81	24
1489.87	24
1490.93	29
1491.99	26
1493.05	27
1494.1	30
1495.16	28
1496.22	27
1497.28	29
1498.34	30
1499.4	26
1500.45	22
1501.51	24
1502.57	26
1503.63	31
1504.68	28
1505.74	30
1506.8	28
1507.85	26
1508.91	25
1509.97	24
1511.02	20
1512.08	31
1513.13	26
1514.19	25
1515.24	31
1516.3	30
1517.35	24
1518.41	34
1519.46	26
1520.52	26
1521.57	29
1522.63	25
1523.68	30
1524.73	31
1525.79	26
1526.84	28
1527.9	24
1528.95	30
1530	32
1531.05	29
1532.11	24
1533.16	27
1534.21	34
1535.26	34
1536.32	28
1537.37	26
1538.42	34
1539.47	26
1540.52	27
1541.57	28
1542.63	30
1543.68	32
1544.73	28
1545.78	25
1546.83	28
1547.88	29
1548.93	28
1549.98	28
1551.03	26
1552.08	30
1553.13	30
1554.18	28
1555.23	28
1556.27	27
1557.32	31
1558.37	34
1559.42	28
1560.47	27
1561.52	28
1562.56	29
1563.61	30
1564.66	26
1565.71	27
1566.75	22
1567.8	32
1568.85	28
1569.9	26
1570.94	26
1571.99	27
1573.03	27
1574.08	26
1575.13	28
1576.17	26
1577.22	27
1578.26	32
1579.31	31
1580.35	26
1581.4	29
1582.44	26
1583.49	30
1584.53	30
1585.58	30
1586.62	26
1587.66	31
1588.71	28
1589.75	25
1590.8	29
1591.84	34
1592.88	28
1593.92	32
1594.97	33
1596.01	34
1597.05	26
1598.1	31
1599.14	25
1600.18	28
1601.22	33
1602.26	26
1603.3	23
1604.35	26
1605.39	28
1606.43	24
1607.47	31
1608.51	25
1609.55	29
1610.59	26
1611.63	26
1612.67	24
1613.71	28
1614.75	28
1615.79	24
1616.83	28
1617.87	26
1618.91	28
1619.95	36
1620.99	20
1622.02	25
1623.06	30
1624.1	29
1625.14	24
1626.18	28
1627.21	28
1628.25	29
1629.29	26
1630.33	30
1631.36	26
1632.4	29
1633.44	22
1634.48	30
1635.51	26
1636.55	29
1637.58	28
1638.62	29
1639.66	24
1640.69	32
1641.73	28
1642.76	30
1643.8	29
1644.83	32
1645.87	30
1646.9	28
1647.94	27
1648.97	30
1650	33
1651.04	26
1652.07	27
1653.11	30
1654.14	26
1655.17	32
1656.21	30
1657.24	26
1658.27	30
1659.31	31
1660.34	29
1661.37	26
1662.4	28
1663.43	26
1664.47	26
1665.5	25
1666.53	28
1667.56	34
1668.59	22
1669.62	29
1670.66	29
1671.69	26
1672.72	30
1673.75	32
1674.78	31
1675.81	28
1676.84	28
1677.87	32
1678.9	29
1679.93	26
1680.96	29
1681.98	24
1683.01	28
1684.04	35
1685.07	22
1686.1	32
1687.13	18
1688.16	31
1689.18	27
1690.21	29
1691.24	31
1692.27	27
1693.3	30
1694.32	22
1695.35	26
1696.38	29
1697.4	32
1698.43	34
1699.46	31
1700.48	27
1701.51	26
1702.54	32
1703.56	30
1704.59	25
1705.61	32
1706.64	29
1707.66	30
1708.69	26
1709.71	32
1710.74	28
1711.76	34
1712.79	29
1713.81	28
1714.83	29
1715.86	28
1716.88	27
1717.91	28
1718.93	28
1719.95	25
1720.98	28
1722	35
1723.02	30
1724.04	32
1725.07	28
1726.09	32
1727.11	24
1728.13	24
1729.15	32
1730.18	27
1731.2	29
1732.22	28
1733.24	34
1734.26	34
1735.28	31
1736.3	28
1737.32	32
1738.34	22
1739.36	28
1740.38	24
1741.4	29
1742.42	29
1743.44	26
1744.46	29
1745.48	32
1746.5	28
1747.52	32
1748.54	26
1749.56	26
1750.58	32
1751.6	33
1752.61	24
1753.63	32
1754.65	29
1755.67	26
1756.68	32
1757.7	24
1758.72	31
1759.74	25
1760.75	31
1761.77	30
1762.79	26
1763.8	31
1764.82	27
1765.83	27
1766.85	26
1767.87	28
1768.88	32
1769.9	31
1770.91	28
1771.93	30
1772.94	27
1773.96	22
1774.97	27
1775.99	32
1777	29
1778.02	30
1779.03	27
1780.04	25
1781.06	30
1782.07	25
1783.09	28
1784.1	27
1785.11	30
1786.13	27
1787.14	25
1788.15	29
1789.16	24
1790.18	33
1791.19	28
1792.2	30
1793.21	27
1794.22	28
1795.23	30
1796.25	29
1797.26	31
1798.27	30
1799.28	24
1800.29	28
1801.3	26
1802.31	31
1803.32	28
1804.33	26
1805.34	28
1806.35	25
1807.36	29
1808.37	31
1809.38	28
1810.39	27
1811.4	26
1812.41	26
1813.42	32
1814.42	22
1815.43	30
1816.44	26
1817.45	25
1818.46	27
1819.47	26
1820.47	27
1821.48	31
1822.49	26
1823.49	28
1824.5	28
1825.51	26
1826.52	28
1827.52	26
1828.53	29
1829.53	30
1830.54	26
1831.55	28
1832.55	27
1833.56	28
1834.56	28
1835.57	26
1836.57	28
1837.58	22
1838.58	30
1839.59	28
1840.59	30
1841.6	28
1842.6	31
1843.61	28
1844.61	24
1845.61	24
1846.62	26
1847.62	26
1848.62	26
1849.63	26
1850.63	25
1851.63	30
1852.64	32
1853.64	24
1854.64	30
1855.64	25
1856.64	36
1857.65	29
1858.65	30
1859.65	26
1860.65	27
1861.65	28
1862.65	30
1863.65	28
1864.66	28
1865.66	24
1866.66	28
1867.66	24
1868.66	30
1869.66	24
1870.66	32
1871.66	30
1872.66	29
1873.66	28
1874.66	31
1875.65	31
1876.65	29
1877.65	26
1878.65	22
1879.65	32
1880.65	22
1881.65	27
1882.64	24
1883.64	29
1884.64	30
1885.64	22
1886.63	26
1887.63	26
1888.63	24
1889.63	27
1890.62	27
1891.62	28
1892.62	30
1893.61	27
1894.61	27
1895.6	28
1896.6	32
1897.6	27
1898.59	24
1899.59	25
1900.58	24
1901.58	26
1902.57	31
1903.57	30
1904.56	24
1905.56	28
1906.55	28
1907.54	29
1908.54	32
1909.53	25
1910.53	33
1911.52	26
1912.51	30
1913.51	26
1914.5	26
1915.49	28
1916.49	27
1917.48	26
1918.47	26
1919.46	30
1920.46	26
1921.45	20
1922.44	24
1923.43	30
1924.42	28
1925.41	28
1926.41	25
1927.4	30
1928.39	26
1929.38	30
1930.37	26
1931.36	31
1932.35	26
1933.34	28
1934.33	29
1935.32	23
1936.31	25
1937.3	31
1938.29	26
1939.28	26
1940.27	30
1941.26	24
1942.24	20
1943.23	22
1944.22	30
1945.21	30
1946.2	32
1947.19	30
1948.17	27
1949.16	30
1950.15	27.5
1951.14	25
1952.12	24
1953.11	25
1954.1	30
1955.09	29
1956.07	28
1957.06	28
1958.05	26
1959.03	32
1960.02	30
1961	23
1961.99	30
1962.98	28
1963.96	26
1964.95	29
1965.93	30
1966.92	25
1967.9	28
1968.89	24
1969.87	26
1970.85	27
1971.84	26
1972.82	27
1973.81	29
1974.79	24
1975.78	28
1976.76	25
1977.74	27
1978.73	30
1979.71	27
1980.69	26
1981.67	26
1982.66	30
1983.64	27
1984.62	29
1985.6	29
1986.59	34
1987.57	24
1988.55	24
1989.53	31
1990.51	27
1991.49	25
1992.47	25
1993.45	24
1994.44	26
1995.42	27
1996.4	26
1997.38	28
1998.36	29
1999.34	27
2000.32	27
2001.3	24
2002.28	28
2003.26	23
2004.24	28
2005.22	31
2006.19	26
2007.17	31
2008.15	30
2009.13	24
2010.11	22
2011.09	27
2012.06	28
2013.04	28
2014.02	28
2015	23
2015.98	30
2016.95	30
2017.93	28
2018.91	26
2019.88	30
2020.86	28
2021.84	30
2022.81	23
2023.79	24
2024.77	29
2025.74	30
2026.72	26
2027.69	26
2028.67	30
2029.65	28
2030.62	31
2031.6	26
2032.57	30
2033.55	30
2034.52	26
2035.5	27
2036.47	30
2037.44	29
2038.42	27
2039.39	24
2040.36	29
2041.34	29
2042.31	27
2043.29	26
2044.26	28
2045.23	20
2046.2	26
2047.18	31
2048.15	30
2049.12	27
2050.09	30
2051.07	30
2052.04	25
2053.01	28
2053.98	25
2054.95	32
2055.93	26
2056.9	22
2057.87	26
2058.84	24
2059.81	27
2060.78	24
2061.75	24
2062.72	24
2063.69	26
2064.66	26
2065.63	24
2066.6	27
2067.57	26
2068.54	26
2069.51	26
2070.48	18
2071.45	32
2072.42	24
2073.38	28
2074.35	26
2075.32	25
2076.29	28
2077.26	31
2078.23	25
2079.19	26
2080.16	27
2081.13	28
2082.1	22
2083.06	28
2084.03	26
2085	30
2085.96	25
2086.93	20
2087.9	26
2088.86	24
2089.83	22
2090.8	29
2091.76	27
2092.73	26
2093.69	28
2094.66	26
2095.62	24
2096.59	27
2097.55	27
2098.52	20
2099.48	25
2100.45	24
2101.41	26
2102.38	21
2103.34	26
2104.31	23
2105.27	30
2106.23	22
2107.2	28
2108.16	26
2109.12	27
2110.09	26
2111.05	28
2112.01	28
2112.98	27
2113.94	26
2114.9	26
2115.86	24
2116.82	24
2117.79	27
2118.75	30
2119.71	27
2120.67	29
2121.63	27
2122.59	31
2123.55	22
2124.52	27
2125.48	28
2126.44	28
2127.4	21
2128.36	24
2129.32	28
2130.28	22
2131.24	28
2132.2	31
2133.16	26
2134.12	26
2135.08	28
2136.04	24
2136.99	26
2137.95	24
2138.91	24
2139.87	26
2140.83	29
2141.79	28
2142.75	18
2143.7	25
2144.66	24
2145.62	23.9804
2146.58	25.9198
2147.53	28.9369
2148.49	25.1751
2149.45	25.7624
2150.41	26.0925
2151.36	24.0127
2152.32	24.225
2153.27	27.9768
2154.23	27.5343
2155.19	27.5091
2156.14	24.4323
2157.1	24.018
2158.06	27.9919
2159.01	29.4314
2159.97	27.6896
2160.92	23.995
2161.88	22.8321
2162.83	19.0904
2163.79	26
2164.74	26.7979
2165.7	31.1449
2166.65	24.6649
2167.61	25.1016
2168.56	21.7087
2169.51	22.9852
2170.47	26.0125
2171.42	23.9623
2172.38	28.7818
2173.33	25.0144
2174.28	22.8971
2175.24	25.401
2176.19	22.3394
2177.14	27.2743
2178.09	28.9601
2179.05	29.2763
2180	24.5016
2180.95	25.3037
2181.9	26.6587
2182.86	26.1806
2183.81	26.6176
2184.76	28.2382
2185.71	27.3817
2186.66	25
2187.61	25.5809
2188.57	25.342
2189.52	26.42
2190.47	19.3282
2191.42	25.7001
2192.37	24.6911
2193.32	25.2941
2194.27	24.1735
2195.22	25.1694
2196.17	25.9925
2197.12	26.2321
2198.07	24.3967
2199.02	28.9197
2199.97	24.7251
2200.92	24.7611
2201.87	25.4028
2202.82	24.5912
2203.76	24.0265
2204.71	28.6889
2205.66	28.3843
2206.61	27.9039
2207.56	25.3745
2208.51	26.0882
2209.45	22.6747
2210.4	24.7983
2211.35	25.54
2212.3	25.7406
2213.24	25.5677
2214.19	24
2215.14	25.882
2216.09	25.7304
2217.03	25.981
2217.98	25
2218.93	24.5896
2219.87	26.155
2220.82	25.6174
2221.77	22.9997
2222.71	25.6862
2223.66	23.8753
2224.6	25.8444
2225.55	24.8265
2226.49	26.3825
2227.44	26.5801
2228.38	29.4984
2229.33	26.5885
2230.27	25.1029
2231.22	25.1298
2232.16	25.3312
2233.11	24.4316
2234.05	24.7362
2235	24.724
2235.94	20.5655
2236.88	23.6984
2237.83	27.5735
2238.77	26.6454
2239.71	23.7004
2240.66	23.7722
2241.6	25.0245
2242	25
2242.95	27
2243.9	26
2244.84	24
2245.79	30
2246.74	27
2247.69	29
2248.63	26
2249.58	24
2250.53	29
2251.47	24
2252.42	29
2253.37	26
2254.31	22
2255.26	20
2256.2	31
2257.15	30
2258.1	24
2259.04	24
2259.99	26
2260.93	29
2261.88	24
2262.82	18
2263.77	26
2264.71	26
2265.65	25
2266.6	20
2267.54	28
2268.49	27
2269.43	27
2270.38	23
2271.32	26
2272.26	29
2273.21	27
2274.15	25
2275.09	28
2276.04	26
2276.98	28
2277.92	26
2278.86	23
2279.81	28
2280.75	29
2281.69	26
2282.63	25
2283.57	32
2284.52	29
2285.46	26
2286.4	27
2287.34	26
2288.28	26
2289.22	24
2290.16	26
2291.1	18
2292.04	28
2292.98	24
2293.93	24
2294.86	30
2295.8	28
2296.74	29
2297.69	26
2298.62	28
2299.56	28
2300.5	25
2301.44	25
2302.38	26
2303.32	20
2304.26	33
2305.2	24
2306.14	26
2307.07	22
2308.01	28
2308.95	24
2309.89	27
2310.83	27
2311.76	27
2312.7	27
2313.64	26
2314.58	24
2315.51	28
2316.45	26
2317.39	28
2318.32	26
2319.26	30
2320.2	30
2321.13	29
2322.07	26
2323	29
2323.94	25
2324.88	27
2325.81	30
2326.75	26
2327.68	28
2328.62	29
2329.55	28
2330.49	26
2331.42	30
2332.36	24
2333.29	20
2334.22	29
2335.16	30
2336.09	24
2337.03	33
2337.96	28
2338.89	26
2339.83	21
2340.76	26
2341.69	26
2342.63	28
2343.56	20
2344.49	29
2345.43	29
2346.36	32
2347.29	16
2348.22	29
2349.15	25
2350.09	25
2351.02	30
2351.95	29
2352.88	24
2353.81	24
2354.74	27
2355.67	20
2356.61	26
2357.54	28
2358.47	26
2359.4	24
2360.33	31
2361.26	28
2362.19	27
2363.12	24
2364.05	26
2364.98	26
2365.91	24
2366.84	30
2367.77	26
2368.7	28
2369.62	28
2370.55	28
2371.48	30
2372.41	26
2373.34	29
2374.27	32
2375.2	25
2376.12	26
2377.05	23
2377.98	27
2378.91	29
2379.83	28
2380.76	28
2381.69	24
2382.62	26
2383.54	26
2384.47	28
2385.4	27
2386.32	22
2387.25	24
2388.18	25
2389.1	29
2390.03	30
2390.95	27
2391.88	31
2392.81	26
2393.73	29
2394.66	24
2395.58	27
2396.51	26
2397.43	26
2398.36	30
2399.28	22
2400.2	30
2401.13	29
2402.05	29
2402.98	26
2403.9	27
2404.83	27
2405.75	24
2406.67	27
2407.6	22
2408.52	22
2409.44	26
2410.37	24
2411.29	26
2412.21	27
2413.13	24
2414.06	26
2414.98	28
2415.9	26
2416.82	31
2417.74	28
2418.67	24
2419.59	25
2420.51	30
2421.43	26
2422.35	25
2423.27	32
2424.19	26
2425.11	26
2426.03	26
2426.96	22
2427.88	22
2428.8	28
2429.72	26
2430.64	26
2431.56	27
2432.48	30
2433.39	27
2434.31	24
2435.23	26
2436.15	26
2437.07	26
2437.99	30
2438.91	24
2439.83	30
2440.75	28
2441.67	22
2442.58	27
2443.5	27
2444.42	27
2445.34	25
2446.26	28
2447.17	22
2448.09	31
2449.01	28
2449.92	30
2450.84	28
2451.76	25
2452.68	20
2453.59	30
2454.51	27
2455.42	24
2456.34	26
2457.26	24
2458.17	23
2459.09	18
2460	25
2460.92	30
2461.83	22
2462.75	26
2463.66	24
2464.58	28
2465.49	30
2466.41	28
2467.32	29
2468.24	24
2469.15	28
2470.07	26
2470.98	29
2471.89	29
2472.81	26
2473.72	26
2474.64	30
2475.55	24
2476.46	27
2477.37	25
2478.29	30
2479.2	32
2480.11	27
2481.03	29
2481.94	27
2482.85	24
2483.76	18
2484.67	28
2485.59	26
2486.5	29
2487.41	25
2488.32	32
2489.23	27
2490.14	29
2491.05	26
2491.97	29
2492.88	26
2493.79	20
2494.7	28
2495.61	25
2496.52	26
2497.43	26
2498.34	24
2499.25	28
2500.16	26
2501.07	25
2501.98	28
2502.89	27
2503.79	22
2504.7	30
2505.61	30
2506.52	28
2507.43	34
2508.34	29
2509.25	26
2510.16	29
2511.06	27
2511.97	26
2512.88	24
2513.79	28
2514.69	24
2515.6	26
2516.51	24
2517.42	28
2518.32	28
2519.23	31
2520.14	28
2521.04	30
2521.95	28
2522.86	29
2523.76	30
2524.67	16
2525.57	26
2526.48	32
2527.39	27
2528.29	26
2529.2	24
2530.1	31
2531.01	24
2531.91	26
2532.82	26
2533.72	30
2534.63	28
2535.53	28
2536.44	29
2537.34	31
2538.24	30
2539.15	24
2540.05	29
2540.96	28
2541.86	27
2542.76	26
2543.67	30
2544.57	27
2545.47	26
2546.37	24
2547.28	27
2548.18	27
2549.08	25
2549.99	29
2550.89	27
2551.79	32
2552.69	28
2553.59	26
2554.49	28
2555.4	27
2556.3	28
2557.2	30
2558.1	18
2559	28
2559.9	28
2560.8	28
2561.7	28
2562.6	28
2563.5	24
2564.4	28
2565.3	22
2566.2	26
2567.1	28
2568	26
2568.9	27
2569.8	30
2570.7	27
2571.6	23
2572.5	30
2573.4	32
2574.3	29
2575.2	26
2576.1	26
2576.99	20
2577.89	25
2578.79	24
2579.69	29
2580.59	29
2581.48	30
2582.38	22
2583.28	32
2584.18	27
2585.07	24
2585.97	29
2586.87	28
2587.76	27
2588.66	31
2589.56	30
2590.45	23
2591.35	27
2592.25	25
2593.14	26
2594.04	32
2594.93	28
2595.83	29
2596.73	24
2597.62	26
2598.52	29
2599.41	29
2600.31	26
2601.2	30
2602.1	30
2602.99	25
2603.88	30
2604.78	31
2605.67	29
2606.57	22
2607.46	28
2608.35	30
2609.25	31
2610.14	26
2611.03	30
2611.93	29
2612.82	31
2613.71	28
2614.61	30
2615.5	27
2616.39	29
2617.29	27
2618.18	27
2619.07	24
2619.96	30
2620.85	30
2621.75	30
2622.64	25
2623.53	26
2624.42	28
2625.31	35
2626.2	30
2627.09	32
2627.98	26
2628.88	26
2629.77	26
2630.66	27
2631.55	28
2632.44	25
2633.33	29
2634.22	26
2635.11	28
2636	25
2636.89	27
2637.78	31
2638.66	32
2639.55	30
2640.44	28
2641.33	26
2642.22	31
2643.11	26
2644	31
2644.89	22
2645.78	30
2646.66	28
2647.55	29
2648.44	28
2649.33	24
2650.21	28
2651.1	27
2651.99	25
2652.88	28
2653.76	30
2654.65	31
2655.54	31
2656.42	28
2657.31	28
2658.2	34
2659.08	28
2659.97	26
2660.86	27
2661.74	27
2662.63	25
2663.51	24
2664.4	28
2665.29	27
2666.17	26
2667.06	30
2667.94	26
2668.83	26
2669.71	22
2670.6	28
2671.48	32
2672.36	28
2673.25	24
2674.13	29
2675.02	28
2675.9	18
2676.78	22
2677.67	24
2678.55	31
2679.43	32
2680.32	23
2681.2	27
2682.08	28
2682.97	27
2683.85	26
2684.73	30
2685.61	27
2686.5	28
2687.38	22
2688.26	32
2689.14	28
2690.03	24
2690.91	28
2691.79	23
2692.67	27
2693.55	31
2694.43	22
2695.31	30
2696.19	26
2697.08	30
2697.96	31
2698.84	29
2699.72	27
2700.6	27
2701.48	22
2702.36	28
2703.24	25
2704.12	30
2705	26
2705.88	30
2706.76	26
2707.64	25
2708.51	28
2709.39	32
2710.27	26
2711.15	33
2712.03	29
2712.91	25
2713.79	28
2714.67	25
2715.54	27
2716.42	28
2717.3	28
2718.18	28
2719.05	30
2719.93	26
2720.81	27
2721.69	26
2722.56	30
2723.44	27
2724.32	28
2725.19	26
2726.07	26
2726.95	26
2727.82	28
2728.7	22
2729.58	30
2730.45	32
2731.33	32
2732.2	28
2733.08	25
2733.95	30
2734.83	29
2735.7	24
2736.58	31
2737.45	28
2738.33	24
2739.2	27
2740.08	28
2740.95	30
2741.83	24
2742.7	24
2743.58	25
2744.45	24
2745.32	24
2746.2	30
2747.07	22
2747.94	26
2748.82	24
2749.69	28
2750.56	26
2751.44	27
2752.31	26
2753.18	26
2754.05	27
2754.93	32
2755.8	29
2756.67	28
2757.54	27
2758.42	31
2759.29	26
2760.16	22
2761.03	26
2761.9	27
2762.77	28
2763.64	29
2764.51	26
2765.38	26
2766.26	26
2767.13	29
2768	32
2768.87	24
2769.74	30
2770.61	30
2771.48	32
2772.35	25
2773.22	27
2774.09	24
2774.96	32
2775.83	26
2776.7	30
2777.56	22
2778.43	30
2779.3	27
2780.17	22
2781.04	32
2781.91	26
2782.78	25
2783.64	28
2784.51	27
2785.38	30
2786.25	28
2787.12	30
2787.98	29
2788.85	24
2789.72	31
2790.59	26
2791.45	28
2792.32	28
2793.19	28
2794.05	26
2794.92	29
2795.79	30
2796.65	27
2797.52	22
2798.38	30
2799.25	32
2800.12	28
2800.98	26
2801.85	28
2802.71	32
2803.58	30.5
2804.44	28
2805.31	30
2806.17	32
2807.04	26
2807.9	32
2808.77	29
2809.63	28
2810.5	27
2811.36	27
2812.22	28
2813.09	30
2813.95	26
2814.82	27
2815.68	28
2816.54	29
2817.41	24
2818.27	26
2819.13	28
2820	27
2820.86	32
2821.72	31
2822.58	24
2823.45	24
2824.31	24
2825.17	30
2826.03	29
2826.9	28
2827.76	26
2828.62	33
2829.48	28
2830.34	30
2831.2	30
2832.06	26
2832.92	26
2833.79	30
2834.65	32
2835.51	28
2836.37	28
2837.23	26
2838.09	34
2838.95	30
2839.81	29
2840.67	29
2841.53	29
2842.39	24
2843.25	31
2844.11	36
2844.97	28
2845.83	29
2846.68	28
2847.54	26
2848.4	28
2849.26	26
2850.12	34
2850.98	29
2851.84	31
2852.69	30
2853.55	28
2854.41	34
2855.27	31
2856.13	28
2856.98	29
2857.84	27
2858.7	26
2859.56	24
2860.41	26
2861.27	32
2862.13	27
2862.98	38
2863.84	30
2864.7	24
2865.55	31
2866.41	24
2867.27	31
2868.12	32
2868.98	31
2869.83	35
2870.69	24
2871.54	27
2872.4	28
2873.25	31
2874.11	27
2874.96	28
2875.82	35
2876.68	34
2877.53	29
2878.38	28
2879.24	31
2880.09	39
2880.95	28
2881.8	34
2882.65	33
2883.51	28
2884.36	38
2885.22	33
2886.07	32
2886.92	36
2887.77	34
2888.63	31
2889.48	38
2890.33	34
2891.19	36
2892.04	40
2892.89	38
2893.74	38
2894.6	46
2895.45	42
2896.3	42
2897.15	50
2898	50
2898.85	51
2899.71	53
2900.56	58
2901.41	62
2902.26	57
2903.11	58
2903.96	58
2904.81	65
2905.66	60
2906.51	63
2907.36	64
2908.21	56
2909.06	54
2909.91	52
2910.76	55
2911.61	52
2912.46	48
2913.31	42
2914.16	46
2915.01	46
2915.86	45
2916.71	45
2917.56	40
2918.41	37
2919.26	44
2920.1	32
2920.95	39
2921.8	35
2922.65	35
2923.5	32
2924.34	35
2925.19	35
2926.04	35
2926.89	31
2927.74	32
2928.58	32
2929.43	32
2930.28	28
2931.12	28
2931.97	30
2932.82	27
2933.66	28
2934.51	31
2935.36	28
2936.2	31
2937.05	32
2937.89	30
2938.74	30
2939.59	29
2940.43	32
2941.28	31
2942.12	36
2942.97	30
2943.81	32
2944.66	24
2945.5	30
2946.35	27
2947.19	28
2948.04	32
2948.88	35
2949.72	29
2950.57	33
2951.41	32
2952.26	36
2953.1	28
2953.94	32
2954.79	34
2955.63	30
2956.47	40
2957.32	33
2958.16	32
2959	37
2959.85	34
2960.69	40
2961.53	39
2962.37	38
2963.22	44
2964.06	38
2964.9	43
2965.74	40
2966.58	44
2967.42	38
2968.27	38
2969.11	36
2969.95	35
2970.79	32
2971.63	40
2972.47	34
2973.31	38
2974.15	37
2974.99	34
2975.83	31
2976.68	37
2977.52	29
2978.36	31
2979.2	33
2980.04	35
2980.88	29
2981.71	32
2982.55	26
2983.39	31
2984.23	28
2985.07	31
2985.91	29
2986.75	30
2987.59	30
2988.43	33
2989.27	30
2990.1	28
2990.94	25
2991.78	26
2992.62	33
2993.46	27
2994.3	30
2995.13	32
2995.97	28
2996.81	26
2997.64	29
2998.48	32
2999.32	28
