#Acq. time (s)=	3
#Accumulations=	3
#Range (cm-¹)=	100...3000
#Windows=	3
#Autofocus=	Off
#AutoExposure=	Off
#Spike filter=	Multiple accum.
#Delay time (s)=	0
#Binning=	1
#Readout mode=	Signal
#DeNoise=	Off
#ICS correction=	Off
#Dark correction=	Off
#Inst. Process=	Off
#Instrument=	LabRAM HR Evol
#Detector=	Syncerity OE
#Objective=	x100_VIS_LWD
#Grating=	600 (500nm)
#ND Filter=	25%
#Laser=	633nm_Edge
#Hole=	100.021
#Range=	Visible
#Project=	Bolus
#Sample=	A5
#Site=	stripside
#Title=	m10
#Remark=	
#Date=	03.11.2025 16:32
#Acquired=	03.11.2025 16:32:31
100.969	28
102.252	34
103.535	35
104.818	34
106.101	35
107.384	32
108.666	34
109.948	32
111.232	33
112.514	26
113.795	35
115.077	33
116.358	36
117.639	31
118.919	32
120.2	37
121.48	32
122.76	34
124.04	32
125.32	32
126.599	34
127.879	34
129.158	35
130.436	31
131.715	37
132.992	36
134.27	36
135.548	38
136.826	36
138.104	39
139.381	40
140.658	39
141.935	37
143.212	39
144.489	34
145.763	35
147.04	34
148.315	42
149.591	43
150.867	36
152.142	38
153.416	43
154.691	40
155.965	46
157.24	41
158.514	32
159.786	41
161.06	31
162.334	38
163.607	39
164.881	37
166.152	36
167.425	37
168.698	46
169.969	35
171.241	40
172.513	42
173.785	34
175.055	37
176.326	39
177.597	38
178.867	40
180.137	36
181.408	34
182.677	38
183.947	40
185.217	42
186.485	45
187.755	44
189.022	41
190.291	39
191.56	45
192.828	41
194.096	34
195.363	48
196.631	38
197.899	39
199.165	34
200.432	40
201.698	36
202.965	36
204.23	35
205.497	34
206.762	38
208.028	43
209.293	38
210.559	35
211.823	38
213.088	36
214.352	30
215.617	33
216.88	34
218.145	40
219.408	39
220.672	32
221.934	35
223.196	30
224.46	29
225.722	34
226.985	31
228.246	28
229.508	36
230.77	29
232.031	35
233.292	35
234.554	28
235.814	32
237.074	30
238.335	30
239.595	34
240.854	28
242.115	30
243.374	34
244.633	32
245.893	27
247.151	32
248.409	32
249.667	33
250.927	32
252.184	28
253.442	30
254.699	38
255.957	31
257.214	28
258.47	32
259.727	30
260.983	30
262.24	33
263.496	28
264.752	32
266.007	31
267.262	32
268.517	28
269.773	30
271.028	28
272.282	31
273.536	31
274.79	26
276.044	30
277.297	31
278.551	31
279.804	33
281.057	24
282.31	36
283.564	32
284.816	30
286.068	31
287.32	31
288.572	30
289.823	29
291.074	27
292.325	28
293.576	30
294.827	31
296.077	31
297.328	28
298.578	30
299.828	26
301.077	30
302.325	36
303.575	26
304.824	33
306.073	32
307.321	31
308.57	31
309.818	31
311.066	34
312.314	36
313.562	27
314.808	33
316.055	30
317.302	34
318.549	32
319.796	32
321.042	34
322.288	28
323.533	31
324.779	26
326.024	32
327.27	30
328.515	29
329.759	31
331.004	29
332.248	33
333.493	23
334.736	26
335.98	37
337.223	29
338.466	32
339.709	28
340.952	32
342.195	32
343.437	30
344.68	30
345.922	30
347.163	24
348.405	28
349.647	27
350.887	33
352.128	33
353.37	30
354.609	36
355.85	34
357.089	30
358.33	29
359.57	24
360.809	32
362.049	32
363.287	28
364.526	28
365.764	30
367.003	34
368.241	32
369.479	30
370.718	29
371.955	32
373.193	31
374.429	28
375.667	26
376.903	28
378.139	29
379.376	32
380.611	33
381.848	28
383.083	30
384.319	34
385.554	30
386.79	30
388.024	24
389.258	30
390.493	32
391.727	28
392.962	32
394.195	32
395.428	30
396.663	30
397.895	35
399.128	31
400.361	26
401.593	26
402.825	30
404.058	30
405.29	32
406.521	30
407.752	35
408.985	28
410.215	33
411.446	35
412.678	30
413.908	32
415.138	32
416.367	32
417.597	26
418.828	26
420.057	32
421.286	28
422.514	36
423.743	30
424.973	27
426.201	31
427.429	33
428.657	30
429.884	31
431.112	30
432.34	29
433.567	30
434.794	30
436.02	33
437.247	33
438.473	30
439.699	31
440.925	30
442.15	31
443.376	34
444.601	34
445.826	32
447.051	32
448.275	35
449.5	30
450.724	29
451.948	30
453.172	32
454.396	28
455.619	34
456.842	26
458.065	32
459.288	28
460.511	32
461.733	32
462.956	32
464.178	35
465.4	33
466.621	38
467.843	34
469.064	35
470.285	28
471.505	34
472.726	32
473.946	37
475.166	34
476.387	44
477.606	41
478.825	42
480.044	40
481.264	47
482.483	50
483.702	50
484.921	52
486.138	56
487.356	57
488.574	54
489.792	50
491.009	53
492.226	50
493.444	46
494.661	54
495.877	50
497.094	44
498.31	40
499.525	45
500.741	46
501.958	40
503.172	45
504.388	45
505.603	41
506.817	42
508.032	38
509.247	36
510.46	38
511.675	38
512.888	34
514.102	34
515.316	34
516.528	34
517.742	32
518.954	32
520.167	32
521.378	33
522.591	28
523.802	30
525.015	31
526.226	34
527.438	35
528.648	32
529.86	33
531.07	31
532.281	34
533.491	36
534.702	32
535.911	31
537.121	33
538.33	33
539.54	26
540.749	30
541.957	30
543.167	28
544.375	28
545.584	29
546.791	31
547.999	31
549.207	32
550.414	28
551.621	33
552.829	37
554.035	31
555.241	32
556.449	34
557.655	28
558.86	31
560.066	28
561.272	34
562.477	32
563.682	32
564.888	28
566.093	28
567.297	32
568.501	30
569.705	28
570.91	28
572.114	31
573.317	29
574.52	31
575.723	32
576.927	31
578.13	32
579.332	32
580.535	31
581.737	32
582.938	36
584.14	30
585.343	30
586.544	32
587.745	30
588.946	32
590.147	30
591.347	30
592.548	30
593.748	28
594.948	27
596.147	30
597.347	29
598.546	32
599.745	31
600.944	30
602.143	27
603.342	29
604.54	30
605.738	32
606.937	26
608.134	32
609.332	31
610.529	30
611.727	35
612.924	32
614.121	28
615.317	30
616.513	34
617.709	32
618.905	31
620.101	32
621.297	31
622.492	28
623.688	33
624.883	24
626.077	34
627.271	30
628.466	30
629.66	29
630.855	28
632.047	30
633.241	26
634.435	30
635.629	35
636.82	31
638.014	30
639.207	29
640.399	26
641.59	24
642.783	28
643.975	24
645.166	32
646.357	28
647.549	30
648.741	30
649.93	34
651.122	35
652.311	35
653.502	31
654.692	25
655.881	37
657.071	33
658.261	25
659.45	28
660.639	36
661.827	32
663.016	36
664.204	30
665.393	30
666.581	34
667.769	34
668.957	33
670.143	30
671.331	32
672.518	30
673.705	29
674.891	36
676.078	35
677.264	32
678.451	34
679.636	30
680.821	32
682.007	34
683.192	40
684.378	43
685.562	34
686.747	32
687.931	37
689.115	39
690.3	35
691.483	34
692.666	34
693.851	29
695.034	38
696.216	38
697.4	37
698.582	37
699.764	39
700.948	32
702.129	38
703.311	39
704.493	40
705.674	47
706.855	44
708.036	46
709.218	44
710.399	52
711.579	38
712.759	38
713.939	44
715.12	39
716.299	40
717.478	35
718.657	37
719.836	26
721.015	33
722.195	32
723.373	32
724.552	32
725.729	32
726.907	30
728.085	36
729.262	30
730.44	33
731.617	30
732.795	35
733.972	28
735.148	24
736.324	26
737.501	25
738.677	32
739.852	26
741.028	29
742.203	28
743.379	30
744.554	29
745.729	30
746.903	33
748.078	28
749.252	28
750.426	31
751.599	30
752.772	25
753.946	30
755.119	32
756.293	34
757.466	28
758.639	34
759.811	30
760.984	31
762.155	33
763.327	24
764.499	30
765.67	34
766.842	32
768.013	29
769.183	35
770.354	30
771.525	29
772.696	30
773.865	28
775.035	31
776.205	28
777.375	32
778.544	28
779.713	30
780.882	29
782.052	32
783.219	34
784.388	34
785.557	33
786.724	31
787.892	38
789.06	28
790.227	33
791.395	30
792.562	31
793.728	28
794.895	28
796.061	32
797.228	35
798.395	37
799.56	33
800.726	30
801.891	32
803.057	35
804.221	34
805.387	26
806.551	35
807.716	28
808.879	30
810.044	30
811.208	28
812.372	26
813.535	34
814.699	24
815.862	34
817.025	31
818.188	28
819.351	30
820.513	31
821.675	32
822.837	26
823.999	30
825.161	35
826.322	28
827.483	27
828.645	30
829.805	26
830.966	33
832.127	30
833.287	31
834.447	29
835.607	27
836.767	33
837.926	30
839.085	27
840.245	32
841.404	31
842.562	31
843.72	24
844.88	34
846.038	31
847.195	30
848.353	24
849.512	24
850.669	28
851.826	27
852.983	32
854.139	31
855.296	28
856.453	26
857.609	32
858.765	28
859.921	36
861.077	29
862.232	33
863.387	32
864.542	30
865.697	27
866.852	34
868.008	31
869.162	29
870.316	29
871.47	31
872.624	32
873.778	30
874.931	31
876.084	31
877.237	29
878.39	28
879.543	25
880.695	34
881.846	33
882.999	28
884.151	30
885.302	31
886.454	30
887.606	30
888.757	32
889.908	27
891.059	30
892.21	29
893.359	30
894.509	26
895.659	27
896.81	30
897.959	28
899.109	28
900.257	28
901.407	26
902.556	26
903.705	32
904.854	28
906.001	28
907.149	31
908.298	32
909.446	26
910.592	30
911.74	26
912.888	26
914.034	26
915.181	28
916.328	28
917.473	32
918.62	27
919.766	31
920.911	26
922.058	28
923.204	26
924.348	26
925.494	30
926.638	34
927.783	31
928.928	33
930.072	25
931.216	29
932.36	30
933.504	30
934.647	34
935.791	26
936.933	33
938.077	29
939.219	29
940.363	26
941.504	32
942.647	28
943.789	27
944.932	29
946.073	28
947.215	30
948.356	30
949.498	33
950.638	32
951.778	21
952.92	28
954.06	28
955.199	30
956.34	28
957.479	32
958.62	30
959.759	30
960.898	28
962.038	32
963.176	29
964.315	26
965.453	26
966.592	32
967.73	26
968.867	30
970.006	28
971.144	31.5
972.281	32
973.418	30
974.554	32
975.692	28
976.829	29
977.965	26
979.101	26
980.237	32
981.374	32
982.509	30
983.645	33
984.78	31
985.915	33
987.05	26
988.184	22
989.319	24
990.453	29
991.589	28
992.722	29
993.856	27
994.99	31
996.123	30
997.257	28
998.39	26
999.523	28
1000.66	29
1001.79	29
1002.92	30
1004.05	31
1005.18	23
1006.32	27
1007.45	23
1008.58	32
1009.71	30
1010.84	28
1011.97	27
1013.1	22
1014.23	29
1015.36	30
1016.49	31
1017.62	27
1018.75	26
1019.88	26
1021.01	31
1022.14	28
1023.27	30
1024.4	31
1025.53	28
1026.66	28
1027.79	32
1028.91	25
1030.04	24
1031.17	27
1032.3	24
1033.42	29
1034.55	27
1035.68	26
1036.81	28
1037.93	28
1039.06	33
1040.18	29
1041.31	27
1042.44	26
1043.56	22
1044.69	33
1045.81	26
1046.94	28
1048.06	27
1049.19	28
1050.31	26
1051.44	30
1052.56	27
1053.69	31
1054.81	29
1055.93	28
1057.06	24
1058.18	30
1059.3	24
1060.43	33
1061.55	24
1062.67	30
1063.79	30
1064.92	26
1066.04	28
1067.16	29
1068.28	30
1069.4	28
1070.52	28
1071.65	27
1072.77	30
1073.89	31
1075.01	28
1076.13	31
1077.25	31
1078.37	34
1079.49	31
1080.61	22
1081.73	33
1082.85	24
1083.97	27
1085.09	29
1086.2	28
1087.32	29
1088.44	31
1089.56	28
1090.68	26
1091.8	26
1092.91	24
1094.03	28
1095.15	22
1096.26	29
1097.38	31
1098.5	29
1099.61	30
1100.73	28
1101.85	28
1102.96	30
1104.08	26
1105.19	29
1106.31	25
1107.43	28
1108.54	25
1109.66	25
1110.77	22
1111.88	26
1113	27
1114.11	29
1115.23	27
1116.34	29
1117.46	28
1118.57	28
1119.68	26
1120.8	23
1121.91	30
1123.02	28
1124.13	30
1125.25	25
1126.36	30
1127.47	25
1128.58	29
1129.69	32
1130.8	25
1131.92	30
1133.03	25
1134.14	30
1135.25	30
1136.36	22
1137.47	29
1138.58	32
1139.69	29
1140.8	26
1141.91	28
1143.02	28
1144.13	27
1145.24	24
1146.35	33
1147.46	25
1148.56	26
1149.67	24
1150.78	27
1151.89	30
1153	22
1154.1	24
1155.21	29
1156.32	28
1157.43	26
1158.53	26
1159.64	31
1160.75	30
1161.85	26
1162.96	30
1164.07	26
1165.17	30
1166.28	24
1167.38	31
1168.49	33
1169.59	31
1170.7	22
1171.8	30
1172.91	26
1174.01	29
1175.12	28
1176.22	30
1177.32	26
1178.43	26
1179.53	26
1180.64	25
1181.74	30
1182.84	26
1183.94	25
1185.05	29
1186.15	34
1187.25	26
1188.35	24
1189.46	29
1190.56	27
1191.66	31
1192.76	27
1193.86	23
1194.96	22
1196.06	26.0196
1197.16	26.9943
1198.26	29.8941
1199.37	24.0839
1200.47	26.0728
1201.57	24.0932
1202.67	22.3741
1203.77	28.0577
1204.86	24.3437
1205.96	29.9018
1207.06	25.4163
1208.16	24.4433
1209.26	27.6922
1210.36	27.8045
1211.46	26.8562
1212.56	24.7723
1213.65	30.7833
1214.75	27.6569
1215.85	29.2745
1216.95	25.8167
1218.04	27.8998
1219.14	28.7221
1220.24	28.8342
1221.33	27.517
1222.43	27.5196
1223.53	23
1224.62	27.4804
1225.72	28.4465
1226.82	25.1259
1227.91	26.045
1229.01	26.3871
1230.1	29.4075
1231.2	28.4954
1232.29	27.595
1233.39	26.2981
1234.48	24.0985
1235.58	26.142
1236.67	28.1205
1237.77	29.4053
1238.86	27.7035
1239.95	26.9007
1241.05	28.4267
1242.14	27.0783
1243.23	22.155
1244.33	23.0951
1245.42	25.0619
1246.51	25.3145
1247.61	25.2059
1248.7	28.1672
1249.79	25.5588
1250.88	26.4881
1251.97	27.0241
1253.07	27.1349
1254.16	27.3105
1255.25	27.9974
1256.34	26.1546
1257.43	29.342
1258.52	27.152
1259.61	26.3337
1260.7	27.6661
1261.79	27.6275
1262.88	27.7544
1263.97	25.8382
1265.06	26.4568
1266.15	24.5294
1267.24	26.7453
1268.33	24.1432
1269.42	28.8541
1270.51	26.6945
1271.6	25.2745
1272.68	24.7875
1273.77	27.7926
1274.86	30.8176
1275.95	30.4033
1277.04	28.8451
1278.12	27.4804
1279.21	25.8958
1280.3	25.9491
1281.39	27.5525
1282.47	26.6367
1283.56	24.841
1284.65	27.1029
1285.73	30.6783
1286.82	27.5892
1287.91	24.7676
1288.99	23.3044
1290.08	26.1546
1291.16	24.9317
1292.25	27.7527
1293.33	26.4902
1294.42	26.3596
1295.5	29.5547
1296.59	27.2044
1297.67	28.2993
1298.76	29.7482
1299.84	28.005
1300.92	21.3448
1302.01	24.1973
1303.09	27.9657
1304.17	27.8403
1305.26	27.1402
1306.34	27.5408
1307.34	22
1308.43	24
1309.52	25
1310.61	27
1311.7	26
1312.78	28
1313.87	26
1314.96	26
1316.04	26
1317.13	26
1318.22	27
1319.3	24
1320.39	30
1321.48	28
1322.56	30
1323.65	27
1324.73	26
1325.82	20
1326.9	29
1327.99	24
1329.07	33
1330.16	26
1331.24	34
1332.33	25
1333.41	28
1334.5	22
1335.58	30
1336.66	24
1337.75	26
1338.83	24
1339.91	29
1341	29
1342.08	28
1343.16	29
1344.24	27
1345.33	28
1346.41	25
1347.49	25
1348.57	26
1349.65	28
1350.74	22
1351.82	25
1352.9	29
1353.98	22
1355.06	28
1356.14	30
1357.22	30
1358.3	24
1359.38	27
1360.46	25
1361.54	26
1362.62	26
1363.7	26
1364.78	32
1365.86	26
1366.94	28
1368.02	28
1369.09	30
1370.17	22
1371.25	30
1372.33	24
1373.41	27
1374.48	29
1375.56	24
1376.64	29
1377.72	28
1378.79	29
1379.87	22
1380.95	33
1382.02	30
1383.1	30
1384.17	26
1385.25	23
1386.33	24
1387.4	28
1388.48	28
1389.55	28
1390.63	26
1391.7	22
1392.78	28
1393.85	27
1394.93	28
1396	29
1397.07	30
1398.15	28
1399.22	28
1400.3	31
1401.37	28
1402.44	30
1403.52	28
1404.59	34
1405.66	33
1406.73	31
1407.81	29
1408.88	36
1409.95	33
1411.02	32
1412.09	35
1413.17	27
1414.24	22
1415.31	35
1416.38	36
1417.45	30
1418.52	33
1419.59	34
1420.66	24
1421.73	30
1422.8	29
1423.87	26
1424.94	34
1426.01	28
1427.08	32
1428.15	26
1429.22	29
1430.29	30
1431.35	34
1432.42	32
1433.49	30
1434.56	26
1435.63	33
1436.69	28
1437.76	28
1438.83	31
1439.9	27
1440.96	30
1442.03	30
1443.1	26
1444.17	24
1445.23	27
1446.3	27
1447.36	24
1448.43	29
1449.49	30
1450.56	28
1451.63	31
1452.69	32
1453.76	28
1454.82	28
1455.89	24
1456.95	33
1458.01	30
1459.08	26
1460.14	29
1461.21	27
1462.27	24
1463.34	23
1464.4	29
1465.46	29
1466.52	30
1467.59	25
1468.65	26
1469.71	24
1470.77	28
1471.84	32
1472.9	28
1473.96	27
1475.02	24
1476.08	27
1477.15	28
1478.21	28
1479.27	28
1480.33	29
1481.39	30
1482.45	25
1483.51	30
1484.57	26
1485.63	28
1486.69	30
1487.75	28
1488.81	30
1489.87	30
1490.93	29
1491.99	28
1493.05	28
1494.1	28
1495.16	22
1496.22	32
1497.28	26
1498.34	29
1499.4	33
1500.45	27
1501.51	26
1502.57	28
1503.63	27
1504.68	22
1505.74	27
1506.8	26
1507.85	27
1508.91	30
1509.97	24
1511.02	25
1512.08	28
1513.13	26
1514.19	25
1515.24	31
1516.3	28
1517.35	30
1518.41	24
1519.46	32
1520.52	18
1521.57	29
1522.63	30
1523.68	30
1524.73	31
1525.79	27
1526.84	29
1527.9	30
1528.95	20
1530	23
1531.05	26
1532.11	27
1533.16	27
1534.21	28
1535.26	30
1536.32	30
1537.37	26
1538.42	28
1539.47	30
1540.52	24
1541.57	28
1542.63	26
1543.68	28
1544.73	26
1545.78	30
1546.83	27
1547.88	29
1548.93	29
1549.98	28
1551.03	31
1552.08	25
1553.13	26
1554.18	25
1555.23	27
1556.27	28
1557.32	28
1558.37	28
1559.42	32
1560.47	32
1561.52	32
1562.56	26
1563.61	26
1564.66	22
1565.71	28
1566.75	24
1567.8	32
1568.85	28
1569.9	32
1570.94	28
1571.99	25
1573.03	28
1574.08	27
1575.13	26
1576.17	20
1577.22	26
1578.26	28
1579.31	29
1580.35	26
1581.4	25
1582.44	33
1583.49	30
1584.53	30
1585.58	30
1586.62	27
1587.66	25
1588.71	29
1589.75	31
1590.8	34
1591.84	30
1592.88	30
1593.92	28
1594.97	30
1596.01	28
1597.05	28
1598.1	29
1599.14	23
1600.18	22
1601.22	30
1602.26	29
1603.3	31
1604.35	32
1605.39	34
1606.43	28
1607.47	25
1608.51	33
1609.55	26
1610.59	27
1611.63	27
1612.67	31
1613.71	24
1614.75	28
1615.79	22
1616.83	26
1617.87	27
1618.91	26
1619.95	29
1620.99	28
1622.02	25
1623.06	28
1624.1	28
1625.14	26
1626.18	26
1627.21	25
1628.25	27
1629.29	31
1630.33	30
1631.36	22
1632.4	29
1633.44	26
1634.48	27
1635.51	27
1636.55	29
1637.58	27
1638.62	28
1639.66	24
1640.69	26
1641.73	28
1642.76	27
1643.8	33
1644.83	32
1645.87	25
1646.9	26
1647.94	26
1648.97	26
1650	30
1651.04	27
1652.07	29
1653.11	28
1654.14	31
1655.17	27
1656.21	26
1657.24	24
1658.27	30
1659.31	24
1660.34	28
1661.37	25
1662.4	27
1663.43	30
1664.47	28
1665.5	27
1666.53	28
1667.56	24
1668.59	32
1669.62	25
1670.66	33
1671.69	26
1672.72	27
1673.75	30
1674.78	22
1675.81	29
1676.84	32
1677.87	28
1678.9	31
1679.93	30
1680.96	22
1681.98	26
1683.01	27
1684.04	26
1685.07	26
1686.1	30
1687.13	28
1688.16	30
1689.18	33
1690.21	25
1691.24	28
1692.27	23
1693.3	31
1694.32	30
1695.35	28
1696.38	30
1697.4	24
1698.43	27
1699.46	26
1700.48	27
1701.51	26
1702.54	29
1703.56	23
1704.59	26
1705.61	26
1706.64	25
1707.66	29
1708.69	24
1709.71	30
1710.74	30
1711.76	23
1712.79	24
1713.81	22
1714.83	29
1715.86	31
1716.88	25
1717.91	31
1718.93	26
1719.95	31
1720.98	29
1722	28
1723.02	27
1724.04	26
1725.07	31
1726.09	26
1727.11	28
1728.13	30
1729.15	26
1730.18	29
1731.2	30
1732.22	29
1733.24	29
1734.26	28
1735.28	28
1736.3	32
1737.32	28
1738.34	28
1739.36	29
1740.38	27
1741.4	28
1742.42	28
1743.44	24
1744.46	22
1745.48	30
1746.5	27
1747.52	29
1748.54	28
1749.56	27
1750.58	27
1751.6	28
1752.61	31
1753.63	25
1754.65	27
1755.67	29
1756.68	28
1757.7	29
1758.72	30
1759.74	32
1760.75	26
1761.77	28
1762.79	31
1763.8	28
1764.82	28
1765.83	27
1766.85	25
1767.87	29
1768.88	25
1769.9	26
1770.91	31
1771.93	32
1772.94	28
1773.96	30
1774.97	28
1775.99	28
1777	27
1778.02	35
1779.03	29
1780.04	27
1781.06	31
1782.07	24
1783.09	31
1784.1	25
1785.11	30
1786.13	28
1787.14	30
1788.15	26
1789.16	26
1790.18	27
1791.19	28
1792.2	24
1793.21	30
1794.22	28
1795.23	29
1796.25	25
1797.26	29
1798.27	27
1799.28	32
1800.29	26
1801.3	26
1802.31	27
1803.32	24
1804.33	26
1805.34	28
1806.35	31
1807.36	28
1808.37	27
1809.38	30
1810.39	26
1811.4	31
1812.41	28
1813.42	28
1814.42	25
1815.43	27
1816.44	30
1817.45	30
1818.46	29
1819.47	24
1820.47	29
1821.48	24
1822.49	31
1823.49	30
1824.5	27
1825.51	30
1826.52	27
1827.52	28
1828.53	25
1829.53	29
1830.54	22
1831.55	24
1832.55	28
1833.56	28
1834.56	24
1835.57	26
1836.57	27
1837.58	30
1838.58	31
1839.59	25
1840.59	30
1841.6	30
1842.6	24
1843.61	30
1844.61	26
1845.61	20
1846.62	26
1847.62	32
1848.62	29
1849.63	30
1850.63	30
1851.63	30
1852.64	22
1853.64	20
1854.64	22
1855.64	28
1856.64	28
1857.65	26
1858.65	31
1859.65	26
1860.65	29
1861.65	27
1862.65	29
1863.65	26
1864.66	30
1865.66	28
1866.66	32
1867.66	28
1868.66	26
1869.66	28
1870.66	30
1871.66	24
1872.66	30
1873.66	30
1874.66	27
1875.65	20
1876.65	29
1877.65	28
1878.65	18
1879.65	27
1880.65	28
1881.65	26
1882.64	24
1883.64	26
1884.64	29
1885.64	28
1886.63	27
1887.63	32
1888.63	27
1889.63	26
1890.62	31
1891.62	27
1892.62	26
1893.61	27
1894.61	28
1895.6	28
1896.6	22
1897.6	30
1898.59	28
1899.59	25
1900.58	29
1901.58	30
1902.57	26
1903.57	26
1904.56	23
1905.56	31
1906.55	26
1907.54	22
1908.54	24
1909.53	28
1910.53	29
1911.52	28
1912.51	24
1913.51	27
1914.5	28
1915.49	26
1916.49	26
1917.48	28
1918.47	27
1919.46	27
1920.46	28
1921.45	28
1922.44	26
1923.43	30
1924.42	25
1925.41	27
1926.41	26
1927.4	26
1928.39	26
1929.38	29
1930.37	31
1931.36	28
1932.35	26
1933.34	23
1934.33	26
1935.32	24
1936.31	28
1937.3	27
1938.29	31
1939.28	26
1940.27	32
1941.26	28
1942.24	32
1943.23	26
1944.22	29
1945.21	27
1946.2	33
1947.19	30
1948.17	26
1949.16	25
1950.15	25
1951.14	25
1952.12	27
1953.11	26
1954.1	29
1955.09	28
1956.07	28
1957.06	18
1958.05	27
1959.03	25
1960.02	31
1961	28
1961.99	24
1962.98	24
1963.96	25
1964.95	22
1965.93	25
1966.92	26
1967.9	30
1968.89	24
1969.87	25
1970.85	26
1971.84	28
1972.82	28
1973.81	24
1974.79	24
1975.78	27
1976.76	20
1977.74	31
1978.73	26
1979.71	27
1980.69	24
1981.67	28
1982.66	29
1983.64	29
1984.62	25
1985.6	29
1986.59	30
1987.57	28
1988.55	24
1989.53	28
1990.51	22
1991.49	26
1992.47	24
1993.45	26
1994.44	21
1995.42	32
1996.4	28
1997.38	28
1998.36	29
1999.34	30
2000.32	25
2001.3	24
2002.28	28
2003.26	27
2004.24	24
2005.22	30
2006.19	27
2007.17	26
2008.15	24
2009.13	27
2010.11	25
2011.09	28
2012.06	24
2013.04	25
2014.02	27
2015	22
2015.98	18
2016.95	28
2017.93	22
2018.91	28
2019.88	26
2020.86	27
2021.84	26
2022.81	24
2023.79	29
2024.77	29
2025.74	22
2026.72	23
2027.69	23
2028.67	29
2029.65	28
2030.62	25
2031.6	30
2032.57	24
2033.55	28
2034.52	26
2035.5	26
2036.47	29
2037.44	27
2038.42	24
2039.39	26
2040.36	26
2041.34	24
2042.31	27
2043.29	24
2044.26	26
2045.23	24
2046.2	27
2047.18	18
2048.15	22
2049.12	27
2050.09	24
2051.07	24
2052.04	24
2053.01	27
2053.98	29
2054.95	24
2055.93	23
2056.9	27
2057.87	26
2058.84	26
2059.81	28
2060.78	22
2061.75	28
2062.72	24
2063.69	25
2064.66	28
2065.63	30
2066.6	26
2067.57	25
2068.54	28
2069.51	29
2070.48	24
2071.45	23
2072.42	23
2073.38	26
2074.35	24
2075.32	24
2076.29	28
2077.26	27
2078.23	22
2079.19	24
2080.16	22
2081.13	29
2082.1	29
2083.06	28
2084.03	23
2085	27
2085.96	24
2086.93	24
2087.9	23
2088.86	24
2089.83	26
2090.8	22
2091.76	27
2092.73	23
2093.69	27
2094.66	27
2095.62	27
2096.59	24
2097.55	29
2098.52	25
2099.48	22
2100.45	24
2101.41	26
2102.38	28
2103.34	22
2104.31	23
2105.27	31
2106.23	32
2107.2	24
2108.16	28
2109.12	23
2110.09	28
2111.05	27
2112.01	31
2112.98	20
2113.94	26
2114.9	28
2115.86	26
2116.82	25
2117.79	25
2118.75	32
2119.71	30
2120.67	26
2121.63	29
2122.59	30
2123.55	26
2124.52	25
2125.48	21
2126.44	20
2127.4	24
2128.36	27
2129.32	18
2130.28	22
2131.24	26
2132.2	22
2133.16	24
2134.12	29
2135.08	24
2136.04	25
2136.99	34
2137.95	26
2138.91	28
2139.87	22
2140.83	26
2141.79	27
2142.75	26
2143.7	24
2144.66	26
2145.62	23.9991
2146.58	27.9144
2147.53	29.8529
2148.49	23.9944
2149.45	25.8371
2150.41	23.1618
2151.36	23.1785
2152.32	23.9176
2153.27	28.338
2154.23	25.6468
2155.19	26.0048
2156.14	25.2021
2157.1	23.7818
2158.06	21.0466
2159.01	25.8319
2159.97	23.1173
2160.92	22.7964
2161.88	26.9761
2162.83	28.2767
2163.79	24.5735
2164.74	27.1989
2165.7	24.3716
2166.65	23.9937
2167.61	26.2165
2168.56	25.2462
2169.51	26.75
2170.47	24.9965
2171.42	27.6303
2172.38	28.0567
2173.33	26.118
2174.28	26.8039
2175.24	25.4931
2176.19	22.767
2177.14	24.6404
2178.09	28.5105
2179.05	26.7182
2180	27.2242
2180.95	26.3342
2181.9	28.6464
2182.86	23.5371
2183.81	26.9311
2184.76	25.8104
2185.71	23.8116
2186.66	28.2941
2187.61	25.0375
2188.57	23.4954
2189.52	25.0262
2190.47	26.6668
2191.42	23.4677
2192.37	21.3823
2193.32	23.536
2194.27	22.5868
2195.22	23.9141
2196.17	27.2055
2197.12	24.2845
2198.07	26.2357
2199.02	24.4058
2199.97	22.8164
2200.92	26.486
2201.87	26.4167
2202.82	22.7451
2203.76	24.2569
2204.71	24.1827
2205.66	24.0668
2206.61	23.9517
2207.56	27.6991
2208.51	23.9757
2209.45	26.3556
2210.4	23.3058
2211.35	24.3225
2212.3	27.5361
2213.24	22.4362
2214.19	23.4277
2215.14	22.3974
2216.09	25.1831
2217.03	28.8863
2217.98	26.1524
2218.93	27.07
2219.87	26.4627
2220.82	25.4595
2221.77	24.7892
2222.71	26.6396
2223.66	24.7092
2224.6	22.7255
2225.55	25.3176
2226.49	26.0109
2227.44	25.406
2228.38	26.8344
2229.33	26.6452
2230.27	25.5054
2231.22	25.1127
2232.16	26.5946
2233.11	24.6827
2234.05	23.4724
2235	25.0667
2235.94	24.7277
2236.88	24.0539
2237.83	25.1471
2238.77	26.1373
2239.71	26.6239
2240.66	27
2241.6	22.9544
2242	20
2242.95	25
2243.9	26
2244.84	30
2245.79	24
2246.74	22
2247.69	25
2248.63	26
2249.58	23
2250.53	29
2251.47	21
2252.42	25
2253.37	25
2254.31	26
2255.26	30
2256.2	28
2257.15	18
2258.1	28
2259.04	27
2259.99	28
2260.93	26
2261.88	22
2262.82	22
2263.77	27
2264.71	25
2265.65	25
2266.6	22
2267.54	22
2268.49	24
2269.43	23
2270.38	27
2271.32	28
2272.26	22
2273.21	27
2274.15	32
2275.09	25
2276.04	26
2276.98	24
2277.92	25
2278.86	25
2279.81	24
2280.75	18
2281.69	23
2282.63	23
2283.57	30
2284.52	28
2285.46	28
2286.4	28
2287.34	22
2288.28	22
2289.22	26
2290.16	18
2291.1	28
2292.04	24
2292.98	24
2293.93	28
2294.86	27
2295.8	27
2296.74	24
2297.69	26
2298.62	30
2299.56	24
2300.5	30
2301.44	24
2302.38	23
2303.32	29
2304.26	28
2305.2	29
2306.14	27
2307.07	26
2308.01	27
2308.95	24
2309.89	26
2310.83	28
2311.76	25
2312.7	21
2313.64	23
2314.58	22
2315.51	31
2316.45	24
2317.39	26
2318.32	25
2319.26	25
2320.2	26
2321.13	28
2322.07	23
2323	23
2323.94	26
2324.88	24
2325.81	30
2326.75	24
2327.68	25
2328.62	20
2329.55	20
2330.49	22
2331.42	22
2332.36	26
2333.29	27
2334.22	22
2335.16	25
2336.09	28
2337.03	34
2337.96	28
2338.89	28
2339.83	24
2340.76	22
2341.69	23
2342.63	26
2343.56	31
2344.49	24
2345.43	25
2346.36	28
2347.29	31
2348.22	27
2349.15	26
2350.09	30
2351.02	27
2351.95	24
2352.88	25
2353.81	24
2354.74	28
2355.67	26
2356.61	22
2357.54	28
2358.47	26
2359.4	29
2360.33	28
2361.26	25
2362.19	32
2363.12	26
2364.05	24
2364.98	24
2365.91	25
2366.84	29
2367.77	24
2368.7	25
2369.62	23
2370.55	25
2371.48	28
2372.41	28
2373.34	27
2374.27	26
2375.2	25
2376.12	24
2377.05	28
2377.98	26
2378.91	27
2379.83	29
2380.76	29
2381.69	23
2382.62	30
2383.54	29
2384.47	30
2385.4	23
2386.32	26
2387.25	24
2388.18	27
2389.1	22
2390.03	25
2390.95	24
2391.88	24
2392.81	28
2393.73	27
2394.66	26
2395.58	26
2396.51	25
2397.43	25
2398.36	26
2399.28	22
2400.2	28
2401.13	26
2402.05	16
2402.98	26
2403.9	29
2404.83	26
2405.75	26
2406.67	26
2407.6	28
2408.52	31
2409.44	32
2410.37	33
2411.29	28
2412.21	25
2413.13	29
2414.06	25
2414.98	29
2415.9	25
2416.82	24
2417.74	28
2418.67	26
2419.59	27
2420.51	22
2421.43	22
2422.35	26
2423.27	30
2424.19	29
2425.11	18
2426.03	28
2426.96	30
2427.88	28
2428.8	27
2429.72	29
2430.64	26
2431.56	28
2432.48	29
2433.39	22
2434.31	30
2435.23	26
2436.15	27
2437.07	30
2437.99	30
2438.91	30
2439.83	30
2440.75	32
2441.67	26
2442.58	25
2443.5	32
2444.42	26
2445.34	18
2446.26	29
2447.17	24
2448.09	28
2449.01	31
2449.92	30
2450.84	27
2451.76	24
2452.68	29
2453.59	22
2454.51	28
2455.42	28
2456.34	29
2457.26	26
2458.17	23
2459.09	29
2460	27
2460.92	29
2461.83	22
2462.75	27
2463.66	26
2464.58	26
2465.49	22
2466.41	32
2467.32	29
2468.24	22
2469.15	26
2470.07	30
2470.98	30
2471.89	26
2472.81	18
2473.72	24
2474.64	28
2475.55	26
2476.46	28
2477.37	26
2478.29	28
2479.2	24
2480.11	31
2481.03	25
2481.94	32
2482.85	26
2483.76	23
2484.67	24
2485.59	31
2486.5	24
2487.41	25
2488.32	27
2489.23	22
2490.14	26
2491.05	25
2491.97	27
2492.88	24
2493.79	26
2494.7	28
2495.61	22
2496.52	25
2497.43	31
2498.34	28
2499.25	28
2500.16	26
2501.07	24
2501.98	29
2502.89	26
2503.79	31
2504.7	28
2505.61	24
2506.52	28
2507.43	24
2508.34	28
2509.25	26
2510.16	24
2511.06	30
2511.97	24
2512.88	26
2513.79	28
2514.69	26
2515.6	28
2516.51	26
2517.42	22
2518.32	30
2519.23	29
2520.14	25
2521.04	27
2521.95	22
2522.86	28
2523.76	32
2524.67	24
2525.57	28
2526.48	28
2527.39	23
2528.29	30
2529.2	30
2530.1	33
2531.01	27
2531.91	26
2532.82	26
2533.72	28
2534.63	26
2535.53	30
2536.44	24
2537.34	28
2538.24	24
2539.15	27
2540.05	28
2540.96	25
2541.86	24
2542.76	28
2543.67	32
2544.57	27
2545.47	18
2546.37	32
2547.28	32
2548.18	20
2549.08	22
2549.99	28
2550.89	29
2551.79	18
2552.69	32
2553.59	28
2554.49	23
2555.4	26
2556.3	26
2557.2	28
2558.1	31
2559	31
2559.9	30
2560.8	30
2561.7	25
2562.6	26
2563.5	27
2564.4	26
2565.3	30
2566.2	24
2567.1	27
2568	28
2568.9	27
2569.8	28
2570.7	24
2571.6	24
2572.5	26
2573.4	29
2574.3	32
2575.2	28
2576.1	23
2576.99	24
2577.89	28
2578.79	25
2579.69	34
2580.59	26
2581.48	24
2582.38	26
2583.28	24
2584.18	28
2585.07	24
2585.97	25
2586.87	26
2587.76	26
2588.66	30
2589.56	24
2590.45	28
2591.35	29
2592.25	22
2593.14	25
2594.04	30
2594.93	24
2595.83	26
2596.73	22
2597.62	24
2598.52	22
2599.41	30
2600.31	28
2601.2	28
2602.1	28
2602.99	29
2603.88	26
2604.78	27
2605.67	23
2606.57	27
2607.46	26
2608.35	28
2609.25	29
2610.14	22
2611.03	28
2611.93	28
2612.82	27
2613.71	24
2614.61	28
2615.5	28
2616.39	29
2617.29	29
2618.18	29
2619.07	22
2619.96	28
2620.85	28
2621.75	26
2622.64	20
2623.53	29
2624.42	22
2625.31	24
2626.2	29
2627.09	25
2627.98	26
2628.88	30
2629.77	30
2630.66	24
2631.55	24
2632.44	27
2633.33	28
2634.22	33
2635.11	26
2636	27
2636.89	27
2637.78	30
2638.66	28
2639.55	23
2640.44	25
2641.33	28
2642.22	26
2643.11	26
2644	34
2644.89	26
2645.78	29
2646.66	26
2647.55	27
2648.44	31
2649.33	24
2650.21	26
2651.1	28
2651.99	29
2652.88	28
2653.76	30
2654.65	28
2655.54	22
2656.42	30
2657.31	22
2658.2	26
2659.08	22
2659.97	30
2660.86	31
2661.74	23
2662.63	32
2663.51	29
2664.4	31
2665.29	28
2666.17	28
2667.06	24
2667.94	27
2668.83	24
2669.71	30
2670.6	27
2671.48	26
2672.36	24
2673.25	27
2674.13	18
2675.02	28
2675.9	25
2676.78	24
2677.67	30
2678.55	25
2679.43	26
2680.32	30
2681.2	30
2682.08	28
2682.97	30
2683.85	32
2684.73	26
2685.61	31
2686.5	28
2687.38	28
2688.26	26
2689.14	26
2690.03	24
2690.91	24
2691.79	26
2692.67	27
2693.55	29
2694.43	28
2695.31	27
2696.19	26
2697.08	27
2697.96	23
2698.84	25
2699.72	22
2700.6	24
2701.48	26
2702.36	24
2703.24	24
2704.12	22
2705	26
2705.88	24
2706.76	27
2707.64	33
2708.51	22
2709.39	22
2710.27	24
2711.15	30
2712.03	24
2712.91	28
2713.79	26
2714.67	28
2715.54	26
2716.42	22
2717.3	25
2718.18	26
2719.05	27
2719.93	24
2720.81	24
2721.69	26
2722.56	28
2723.44	24
2724.32	26
2725.19	24
2726.07	24
2726.95	29
2727.82	25
2728.7	32
2729.58	35
2730.45	26
2731.33	26
2732.2	28
2733.08	24
2733.95	24
2734.83	32
2735.7	30
2736.58	25
2737.45	22
2738.33	24
2739.2	24
2740.08	32
2740.95	26
2741.83	22
2742.7	30
2743.58	20
2744.45	26
2745.32	27
2746.2	29
2747.07	28
2747.94	26
2748.82	25
2749.69	30
2750.56	25
2751.44	27
2752.31	27
2753.18	26
2754.05	28
2754.93	22
2755.8	27
2756.67	30
2757.54	29
2758.42	26
2759.29	26
2760.16	25
2761.03	28
2761.9	25
2762.77	31
2763.64	28
2764.51	27
2765.38	32
2766.26	24
2767.13	24
2768	29
2768.87	31
2769.74	26
2770.61	27
2771.48	28
2772.35	28
2773.22	30
2774.09	27
2774.96	29
2775.83	29
2776.7	27
2777.56	29
2778.43	28
2779.3	25
2780.17	26
2781.04	33
2781.91	26
2782.78	30
2783.64	25
2784.51	28
2785.38	28
2786.25	26
2787.12	27
2787.98	30
2788.85	22
2789.72	31
2790.59	30
2791.45	28
2792.32	24
2793.19	28
2794.05	29
2794.92	35
2795.79	30
2796.65	23
2797.52	26
2798.38	31
2799.25	31
2800.12	31
2800.98	30
2801.85	30
2802.71	31
2803.58	30
2804.44	29
2805.31	29
2806.17	30
2807.04	28
2807.9	27
2808.77	28
2809.63	27
2810.5	28
2811.36	28
2812.22	26
2813.09	29
2813.95	27
2814.82	30
2815.68	25
2816.54	28
2817.41	24
2818.27	29
2819.13	34
2820	28
2820.86	26
2821.72	32
2822.58	26
2823.45	26
2824.31	27
2825.17	26
2826.03	23
2826.9	26
2827.76	30
2828.62	20
2829.48	32
2830.34	27
2831.2	31
2832.06	29
2832.92	25
2833.79	27
2834.65	25
2835.51	26
2836.37	26
2837.23	27
2838.09	25
2838.95	25
2839.81	24
2840.67	29
2841.53	26
2842.39	30
2843.25	24
2844.11	31
2844.97	24
2845.83	30
2846.68	30
2847.54	26
2848.4	26
2849.26	28
2850.12	28
2850.98	23
2851.84	26
2852.69	27
2853.55	25
2854.41	24
2855.27	31
2856.13	26
2856.98	23
2857.84	30
2858.7	28
2859.56	31
2860.41	26
2861.27	31
2862.13	26
2862.98	26
2863.84	32
2864.7	24
2865.55	32
2866.41	29
2867.27	24
2868.12	34
2868.98	29
2869.83	27
2870.69	31
2871.54	32
2872.4	31
2873.25	28
2874.11	32
2874.96	32
2875.82	27
2876.68	32
2877.53	38
2878.38	30
2879.24	34
2880.09	26
2880.95	36
2881.8	30
2882.65	37
2883.51	38
2884.36	32
2885.22	30
2886.07	36
2886.92	34
2887.77	36
2888.63	38
2889.48	40
2890.33	36
2891.19	40
2892.04	35
2892.89	34
2893.74	40
2894.6	42
2895.45	40
2896.3	48
2897.15	42
2898	55
2898.85	53
2899.71	56
2900.56	48
2901.41	59
2902.26	62
2903.11	62
2903.96	63
2904.81	58
2905.66	66
2906.51	57
2907.36	66
2908.21	64
2909.06	52
2909.91	56
2910.76	60
2911.61	59
2912.46	54
2913.31	50
2914.16	51
2915.01	42
2915.86	46
2916.71	40
2917.56	41
2918.41	43
2919.26	39
2920.1	40
2920.95	35
2921.8	42
2922.65	30
2923.5	30
2924.34	38
2925.19	31
2926.04	30
2926.89	29
2927.74	34
2928.58	31
2929.43	30
2930.28	28
2931.12	31
2931.97	28
2932.82	24
2933.66	26
2934.51	36
2935.36	26
2936.2	25
2937.05	34
2937.89	30
2938.74	28
2939.59	28
2940.43	26
2941.28	32
2942.12	30
2942.97	31
2943.81	33
2944.66	31
2945.5	31
2946.35	31
2947.19	28
2948.04	34
2948.88	30
2949.72	34
2950.57	35
2951.41	34
2952.26	32
2953.1	38
2953.94	37
2954.79	30
2955.63	36
2956.47	34
2957.32	38
2958.16	36
2959	34
2959.85	42
2960.69	39
2961.53	39
2962.37	47
2963.22	42
2964.06	38
2964.9	43
2965.74	42
2966.58	52
2967.42	45
2968.27	38
2969.11	41
2969.95	38
2970.79	40
2971.63	40
2972.47	40
2973.31	38
2974.15	35
2974.99	32
2975.83	35
2976.68	35
2977.52	37
2978.36	32
2979.2	30
2980.04	31
2980.88	31
2981.71	31
2982.55	30
2983.39	28
2984.23	30
2985.07	29
2985.91	29
2986.75	31
2987.59	34
2988.43	28
2989.27	30
2990.1	28
2990.94	26
2991.78	28
2992.62	26
2993.46	28
2994.3	30
2995.13	26
2995.97	30
2996.81	26
2997.64	28
2998.48	30
2999.32	28
