#Acq. time (s)=	3
#Accumulations=	3
#Range (cm-¹)=	100...3000
#Windows=	3
#Autofocus=	Off
#AutoExposure=	Off
#Spike filter=	Multiple accum.
#Delay time (s)=	0
#Binning=	1
#Readout mode=	Signal
#DeNoise=	Off
#ICS correction=	Off
#Dark correction=	Off
#Inst. Process=	Off
#Instrument=	LabRAM HR Evol
#Detector=	Syncerity OE
#Objective=	x100_VIS_LWD
#Grating=	600 (500nm)
#ND Filter=	25%
#Laser=	633nm_Edge
#Hole=	100.021
#Range=	Visible
#Project=	Bolus
#Sample=	A5
#Site=	stripside
#Title=	m11
#Remark=	
#Date=	03.11.2025 16:35
#Acquired=	03.11.2025 16:35:20
100.969	28
102.252	34
103.535	34
104.818	28
106.101	30
107.384	29
108.666	32
109.948	31
111.232	28
112.514	32
113.795	30
115.077	29
116.358	26
117.639	32
118.919	36
120.2	31
121.48	36
122.76	32
124.04	30
125.32	27
126.599	34
127.879	25
129.158	26
130.436	31
131.715	30
132.992	36
134.27	32
135.548	32
136.826	31
138.104	38
139.381	32
140.658	37
141.935	36
143.212	36
144.489	32
145.763	28
147.04	32
148.315	38
149.591	38
150.867	36
152.142	36
153.416	36
154.691	40
155.965	36
157.24	39
158.514	38
159.786	41
161.06	40
162.334	34
163.607	38
164.881	35
166.152	40
167.425	36
168.698	38
169.969	42
171.241	42
172.513	38
173.785	32
175.055	32
176.326	42
177.597	35
178.867	44
180.137	34
181.408	36
182.677	30
183.947	38
185.217	34
186.485	40
187.755	42
189.022	36
190.291	34
191.56	38
192.828	38
194.096	38
195.363	38
196.631	40
197.899	36
199.165	34
200.432	41
201.698	28
202.965	36
204.23	36
205.497	30
206.762	30
208.028	34
209.293	34
210.559	35
211.823	38
213.088	34
214.352	34
215.617	34
216.88	28
218.145	30
219.408	35
220.672	38
221.934	32
223.196	32
224.46	32
225.722	37
226.985	36
228.246	26
229.508	38
230.77	34
232.031	28
233.292	35
234.554	32
235.814	36
237.074	34
238.335	30
239.595	32
240.854	31
242.115	39
243.374	30
244.633	28
245.893	30
247.151	24
248.409	31
249.667	32
250.927	30
252.184	34
253.442	32
254.699	32
255.957	36
257.214	34
258.47	28
259.727	29
260.983	30
262.24	36
263.496	34
264.752	34
266.007	32
267.262	34
268.517	31
269.773	28
271.028	35
272.282	32
273.536	30
274.79	31
276.044	28
277.297	26
278.551	27
279.804	27
281.057	34
282.31	24
283.564	33
284.816	33
286.068	27
287.32	28
288.572	30
289.823	30
291.074	32
292.325	32
293.576	32
294.827	27
296.077	29
297.328	24
298.578	34
299.828	30
301.077	26
302.325	27
303.575	30
304.824	29
306.073	29
307.321	32
308.57	26
309.818	30
311.066	26
312.314	34
313.562	26
314.808	27
316.055	26
317.302	34
318.549	24
319.796	30
321.042	32
322.288	31
323.533	32
324.779	30
326.024	28
327.27	28
328.515	30
329.759	31
331.004	33
332.248	31
333.493	26
334.736	28
335.98	29
337.223	33
338.466	28
339.709	29
340.952	35
342.195	24
343.437	28
344.68	32
345.922	33
347.163	31
348.405	27
349.647	30
350.887	30
352.128	32
353.37	34
354.609	34
355.85	28
357.089	35
358.33	31
359.57	34
360.809	36
362.049	26
363.287	28
364.526	26
365.764	26
367.003	28
368.241	28
369.479	32
370.718	30
371.955	31
373.193	31
374.429	28
375.667	32
376.903	33
378.139	30
379.376	33
380.611	26
381.848	30
383.083	27
384.319	36
385.554	27
386.79	33
388.024	34
389.258	30
390.493	32
391.727	28
392.962	28
394.195	31
395.428	31
396.663	22
397.895	18
399.128	25
400.361	29
401.593	24
402.825	32
404.058	28
405.29	33
406.521	33
407.752	34
408.985	30
410.215	26
411.446	28
412.678	30
413.908	28
415.138	29
416.367	29
417.597	31
418.828	33
420.057	28
421.286	30
422.514	28
423.743	30
424.973	32
426.201	30
427.429	31
428.657	30
429.884	30
431.112	32
432.34	35
433.567	31
434.794	28
436.02	28
437.247	34
438.473	32
439.699	30
440.925	33
442.15	28
443.376	32
444.601	32
445.826	32
447.051	28
448.275	26
449.5	32
450.724	28
451.948	28
453.172	30
454.396	29
455.619	29
456.842	28
458.065	28
459.288	28
460.511	32
461.733	32
462.956	30
464.178	35
465.4	32
466.621	30
467.843	36
469.064	28
470.285	32
471.505	32
472.726	38
473.946	36
475.166	34
476.387	33
477.606	32
478.825	40
480.044	42
481.264	43
482.483	46
483.702	46
484.921	44
486.138	48
487.356	48
488.574	50
489.792	44
491.009	53
492.226	52
493.444	50
494.661	53
495.877	52
497.094	46
498.31	40
499.525	46
500.741	40
501.958	39
503.172	38
504.388	34
505.603	43
506.817	34
508.032	39
509.247	34
510.46	32
511.675	33
512.888	33
514.102	30
515.316	37
516.528	32
517.742	31
518.954	24
520.167	26
521.378	37
522.591	34
523.802	35
525.015	32
526.226	35
527.438	34
528.648	34
529.86	26
531.07	32
532.281	33
533.491	30
534.702	32
535.911	31
537.121	28
538.33	31
539.54	30
540.749	29
541.957	27
543.167	24
544.375	33
545.584	31
546.791	29
547.999	29
549.207	29
550.414	26
551.621	33
552.829	28
554.035	28
555.241	26
556.449	31
557.655	26
558.86	30
560.066	32
561.272	32
562.477	25
563.682	30
564.888	34
566.093	30
567.297	35
568.501	30
569.705	34
570.91	27
572.114	28
573.317	29
574.52	30
575.723	26
576.927	29
578.13	35
579.332	30
580.535	28
581.737	28
582.938	26
584.14	28
585.343	29
586.544	31
587.745	30
588.946	29
590.147	32
591.347	28
592.548	31
593.748	26
594.948	30
596.147	27
597.347	27
598.546	28
599.745	32
600.944	32
602.143	25
603.342	26
604.54	26
605.738	30
606.937	28
608.134	34
609.332	30
610.529	33
611.727	31
612.924	33
614.121	29
615.317	33
616.513	33
617.709	24
618.905	30
620.101	36
621.297	32
622.492	29
623.688	30
624.883	26
626.077	26
627.271	30
628.466	30
629.66	30
630.855	31
632.047	33
633.241	26
634.435	28
635.629	28
636.82	33
638.014	24
639.207	36
640.399	26
641.59	29
642.783	31
643.975	29
645.166	30
646.357	33
647.549	30
648.741	28
649.93	31
651.122	32
652.311	33
653.502	29
654.692	34
655.881	31
657.071	26
658.261	26
659.45	33
660.639	32
661.827	31
663.016	32
664.204	28
665.393	26
666.581	32
667.769	30
668.957	32
670.143	35
671.331	30
672.518	30
673.705	28
674.891	32
676.078	26
677.264	33
678.451	27
679.636	34
680.821	35
682.007	40
683.192	26
684.378	35
685.562	32
686.747	37
687.931	37
689.115	41
690.3	32
691.483	33
692.666	28
693.851	35
695.034	35
696.216	32
697.4	31
698.582	37
699.764	32
700.948	32
702.129	36
703.311	41
704.493	36
705.674	45
706.855	42
708.036	45
709.218	48
710.399	38
711.579	39
712.759	36
713.939	36
715.12	32
716.299	36
717.478	34
718.657	35
719.836	32
721.015	34
722.195	31
723.373	35
724.552	24
725.729	29
726.907	30
728.085	28
729.262	26
730.44	34
731.617	27
732.795	30
733.972	28
735.148	30
736.324	27
737.501	34
738.677	31
739.852	28
741.028	31
742.203	31
743.379	28
744.554	34
745.729	27
746.903	34
748.078	32
749.252	24
750.426	32
751.599	30
752.772	31
753.946	26
755.119	29
756.293	32
757.466	32
758.639	29
759.811	32
760.984	29
762.155	30
763.327	28
764.499	31
765.67	25
766.842	30
768.013	27
769.183	32
770.354	29
771.525	28
772.696	31
773.865	30
775.035	30
776.205	32
777.375	28
778.544	28
779.713	31
780.882	26
782.052	35
783.219	28
784.388	33
785.557	34
786.724	30
787.892	30
789.06	30
790.227	36
791.395	32
792.562	32
793.728	31
794.895	28
796.061	30
797.228	30
798.395	26
799.56	26
800.726	30
801.891	34
803.057	31
804.221	28
805.387	33
806.551	30
807.716	26
808.879	33
810.044	28
811.208	31
812.372	31
813.535	26
814.699	33
815.862	29
817.025	29
818.188	30
819.351	30
820.513	29
821.675	26
822.837	32
823.999	28
825.161	27
826.322	31
827.483	26
828.645	26
829.805	31
830.966	32
832.127	32
833.287	26
834.447	24
835.607	30
836.767	29
837.926	32
839.085	33
840.245	30
841.404	31
842.562	32
843.72	30
844.88	26
846.038	30
847.195	31
848.353	27
849.512	32
850.669	26
851.826	30
852.983	26
854.139	34
855.296	29
856.453	34
857.609	26
858.765	22
859.921	26
861.077	24
862.232	32
863.387	33
864.542	32
865.697	26
866.852	30
868.008	30
869.162	29
870.316	33
871.47	33
872.624	32
873.778	30
874.931	34
876.084	26
877.237	24
878.39	32
879.543	34
880.695	31
881.846	31
882.999	28
884.151	26
885.302	24
886.454	33
887.606	28
888.757	24
889.908	27
891.059	32
892.21	30
893.359	32
894.509	26
895.659	29
896.81	28
897.959	32
899.109	32
900.257	32
901.407	34
902.556	22
903.705	32
904.854	27
906.001	29
907.149	22
908.298	22
909.446	28
910.592	30
911.74	28
912.888	26
914.034	26
915.181	26
916.328	28
917.473	27
918.62	26
919.766	24
920.911	30
922.058	26
923.204	33
924.348	32
925.494	29
926.638	27
927.783	29
928.928	30
930.072	26
931.216	24
932.36	28
933.504	28
934.647	32
935.791	31
936.933	28
938.077	30
939.219	27
940.363	27
941.504	26
942.647	26
943.789	29
944.932	28
946.073	31
947.215	28
948.356	31
949.498	27
950.638	24
951.778	26
952.92	28
954.06	28
955.199	29
956.34	26
957.479	29
958.62	32
959.759	28
960.898	28
962.038	25
963.176	28
964.315	31
965.453	31
966.592	28
967.73	26
968.867	22
970.006	24
971.144	27
972.281	30
973.418	30
974.554	30
975.692	30
976.829	29
977.965	29
979.101	32
980.237	32
981.374	28
982.509	31
983.645	26
984.78	25
985.915	24
987.05	26
988.184	26
989.319	28
990.453	24
991.589	29
992.722	26
993.856	29
994.99	34
996.123	29
997.257	28
998.39	28
999.523	32
1000.66	28
1001.79	26
1002.92	28
1004.05	25
1005.18	30
1006.32	28
1007.45	31
1008.58	32
1009.71	30
1010.84	28
1011.97	24
1013.1	26
1014.23	28
1015.36	26
1016.49	28
1017.62	24
1018.75	24
1019.88	24
1021.01	27
1022.14	22
1023.27	33
1024.4	28
1025.53	27
1026.66	32
1027.79	27
1028.91	33
1030.04	24
1031.17	28
1032.3	30
1033.42	28
1034.55	24
1035.68	30
1036.81	28
1037.93	28
1039.06	28
1040.18	32
1041.31	26
1042.44	28
1043.56	26
1044.69	27
1045.81	28
1046.94	29
1048.06	22
1049.19	30
1050.31	23
1051.44	30
1052.56	27
1053.69	32
1054.81	26
1055.93	29
1057.06	26
1058.18	30
1059.3	26
1060.43	30
1061.55	26
1062.67	30
1063.79	28
1064.92	24
1066.04	30
1067.16	25
1068.28	28
1069.4	28
1070.52	27
1071.65	25
1072.77	33
1073.89	29
1075.01	29
1076.13	24
1077.25	26
1078.37	22
1079.49	31
1080.61	27
1081.73	24
1082.85	26
1083.97	28
1085.09	24
1086.2	28
1087.32	24
1088.44	32
1089.56	26
1090.68	24
1091.8	28
1092.91	25
1094.03	31
1095.15	27
1096.26	29
1097.38	26
1098.5	27
1099.61	26
1100.73	25
1101.85	28
1102.96	30
1104.08	30
1105.19	25
1106.31	25
1107.43	28
1108.54	28
1109.66	30
1110.77	28
1111.88	30
1113	28
1114.11	27
1115.23	26
1116.34	30
1117.46	26
1118.57	27
1119.68	25
1120.8	32
1121.91	28
1123.02	28
1124.13	24
1125.25	30
1126.36	28
1127.47	32
1128.58	29
1129.69	30
1130.8	30
1131.92	28
1133.03	24
1134.14	26
1135.25	26
1136.36	32
1137.47	28
1138.58	25
1139.69	32
1140.8	29
1141.91	29
1143.02	32
1144.13	28
1145.24	22
1146.35	27
1147.46	32
1148.56	26
1149.67	22
1150.78	28
1151.89	26
1153	20
1154.1	26
1155.21	28
1156.32	29
1157.43	28
1158.53	30
1159.64	28
1160.75	30
1161.85	30
1162.96	27
1164.07	28
1165.17	26
1166.28	28
1167.38	28
1168.49	33
1169.59	27
1170.7	22
1171.8	25
1172.91	24
1174.01	29
1175.12	22
1176.22	30
1177.32	26
1178.43	32
1179.53	20
1180.64	25
1181.74	28
1182.84	24
1183.94	29
1185.05	28
1186.15	26
1187.25	25
1188.35	26
1189.46	24
1190.56	24
1191.66	22
1192.76	27
1193.86	24
1194.96	28
1196.06	27.9755
1197.16	27.9182
1198.26	23.9784
1199.37	29.8703
1200.47	29.8875
1201.57	25.9363
1202.67	25.8088
1203.77	24.1235
1204.86	28.0885
1205.96	24.5588
1207.06	28.0985
1208.16	27.8834
1209.26	27.0656
1210.36	30.6681
1211.46	28.143
1212.56	24.7603
1213.65	23.8088
1214.75	24.6026
1215.85	26.4448
1216.95	29.5418
1218.04	26.0849
1219.14	30.0712
1220.24	22.9689
1221.33	24.6041
1222.43	28.7944
1223.53	25.3518
1224.62	26.4609
1225.72	24.3884
1226.82	27.3194
1227.91	24.6633
1229.01	26.853
1230.1	26.8446
1231.2	29.1768
1232.29	26.3868
1233.39	28.3722
1234.48	28.0516
1235.58	24.4999
1236.67	26.1442
1237.77	23.741
1238.86	26.7412
1239.95	26.9344
1241.05	25.642
1242.14	26.1094
1243.23	30.0533
1244.33	28.0951
1245.42	25.3963
1246.51	26.8122
1247.61	29.8169
1248.7	26.3215
1249.79	26.3235
1250.88	26.3282
1251.97	24.0535
1253.07	25.8357
1254.16	27.9985
1255.25	28.1843
1256.34	26.224
1257.43	25.4406
1258.52	26.2549
1259.61	26.2387
1260.7	24.0839
1261.79	25.032
1262.88	27.7044
1263.97	29.0637
1265.06	29.7479
1266.15	28.8615
1267.24	28.0619
1268.33	26.7433
1269.42	29.19
1270.51	26.1769
1271.6	27.992
1272.68	24.0206
1273.77	28.281
1274.86	24.9494
1275.95	24.5526
1277.04	23.3059
1278.12	25.6329
1279.21	26.2447
1280.3	25.3308
1281.39	25.743
1282.47	27.6334
1283.56	25.0709
1284.65	22.3666
1285.73	28.5657
1286.82	28.0902
1287.91	25.4942
1288.99	29.09
1290.08	27.3286
1291.16	25.7688
1292.25	27.9847
1293.33	24.1251
1294.42	23.9073
1295.5	25.2329
1296.59	31.7919
1297.67	27.9906
1298.76	30.1086
1299.84	26.2009
1300.92	27.5583
1302.01	24.5114
1303.09	29.1433
1304.17	30.4347
1305.26	27.1255
1306.34	27.8404
1307.34	26
1308.43	26
1309.52	24
1310.61	29
1311.7	28
1312.78	28
1313.87	28
1314.96	33
1316.04	30
1317.13	28
1318.22	30
1319.3	31
1320.39	30
1321.48	26
1322.56	27
1323.65	29
1324.73	22
1325.82	30
1326.9	23
1327.99	28
1329.07	24
1330.16	22
1331.24	28
1332.33	27
1333.41	20
1334.5	26
1335.58	24
1336.66	25
1337.75	26
1338.83	28
1339.91	28
1341	24
1342.08	29
1343.16	25
1344.24	27
1345.33	27
1346.41	25
1347.49	28
1348.57	24
1349.65	21
1350.74	28
1351.82	25
1352.9	30
1353.98	30
1355.06	28
1356.14	26
1357.22	29
1358.3	28
1359.38	25
1360.46	28
1361.54	26
1362.62	31
1363.7	29
1364.78	30
1365.86	28
1366.94	29
1368.02	32
1369.09	30
1370.17	25
1371.25	24
1372.33	32
1373.41	30
1374.48	27
1375.56	28
1376.64	28
1377.72	27
1378.79	29
1379.87	26
1380.95	32
1382.02	30
1383.1	28
1384.17	30
1385.25	29
1386.33	26
1387.4	28
1388.48	25
1389.55	27
1390.63	28
1391.7	28
1392.78	29
1393.85	31
1394.93	26
1396	33
1397.07	28
1398.15	28
1399.22	29
1400.3	27
1401.37	34
1402.44	26
1403.52	33
1404.59	37
1405.66	32
1406.73	32
1407.81	28
1408.88	30
1409.95	27
1411.02	32
1412.09	32
1413.17	30
1414.24	31
1415.31	30
1416.38	32
1417.45	30
1418.52	30
1419.59	28
1420.66	26
1421.73	30
1422.8	32
1423.87	28
1424.94	33
1426.01	30
1427.08	28
1428.15	28
1429.22	36
1430.29	26
1431.35	27
1432.42	32
1433.49	28
1434.56	26
1435.63	28
1436.69	32
1437.76	30
1438.83	30
1439.9	26
1440.96	30
1442.03	29
1443.1	31
1444.17	30
1445.23	28
1446.3	28
1447.36	28
1448.43	30
1449.49	32
1450.56	30
1451.63	31
1452.69	26
1453.76	24
1454.82	27
1455.89	30
1456.95	30
1458.01	26
1459.08	28
1460.14	28
1461.21	28
1462.27	27
1463.34	30
1464.4	24
1465.46	26
1466.52	32
1467.59	27
1468.65	25
1469.71	24
1470.77	28
1471.84	27
1472.9	30
1473.96	28
1475.02	24
1476.08	23
1477.15	30
1478.21	26
1479.27	30
1480.33	26
1481.39	29
1482.45	26
1483.51	32
1484.57	24
1485.63	32
1486.69	28
1487.75	30
1488.81	26
1489.87	28
1490.93	26
1491.99	27
1493.05	28
1494.1	26
1495.16	25
1496.22	28
1497.28	24
1498.34	24
1499.4	29
1500.45	26
1501.51	26
1502.57	31
1503.63	25
1504.68	28
1505.74	28
1506.8	28
1507.85	29
1508.91	25
1509.97	27
1511.02	27
1512.08	27
1513.13	26
1514.19	26
1515.24	29
1516.3	30
1517.35	27
1518.41	27
1519.46	26
1520.52	24
1521.57	29
1522.63	27
1523.68	30
1524.73	30
1525.79	26
1526.84	24
1527.9	26
1528.95	32
1530	24
1531.05	23
1532.11	31
1533.16	29
1534.21	34
1535.26	29
1536.32	30
1537.37	31
1538.42	28
1539.47	24
1540.52	26
1541.57	28
1542.63	25
1543.68	28
1544.73	28
1545.78	28
1546.83	26
1547.88	26
1548.93	30
1549.98	20
1551.03	27
1552.08	27
1553.13	28
1554.18	29
1555.23	30
1556.27	27
1557.32	30
1558.37	32
1559.42	30
1560.47	30
1561.52	27
1562.56	30
1563.61	30
1564.66	31
1565.71	28
1566.75	28
1567.8	27
1568.85	29
1569.9	33
1570.94	30
1571.99	30
1573.03	26
1574.08	26
1575.13	30
1576.17	22
1577.22	29
1578.26	28
1579.31	28
1580.35	27
1581.4	29
1582.44	26
1583.49	25
1584.53	26
1585.58	28
1586.62	26
1587.66	30
1588.71	27
1589.75	29
1590.8	29
1591.84	29
1592.88	22
1593.92	24
1594.97	31
1596.01	30
1597.05	25
1598.1	28
1599.14	32
1600.18	30
1601.22	28
1602.26	28
1603.3	30
1604.35	28
1605.39	30
1606.43	27
1607.47	30
1608.51	28
1609.55	28
1610.59	25
1611.63	30
1612.67	22
1613.71	28
1614.75	30
1615.79	24
1616.83	22
1617.87	29
1618.91	28
1619.95	26
1620.99	30
1622.02	25
1623.06	30
1624.1	31
1625.14	26
1626.18	31
1627.21	24
1628.25	31
1629.29	28
1630.33	25
1631.36	28
1632.4	29
1633.44	32
1634.48	23
1635.51	29
1636.55	26
1637.58	32
1638.62	30
1639.66	29
1640.69	30
1641.73	25
1642.76	28
1643.8	33
1644.83	28
1645.87	28
1646.9	28
1647.94	27
1648.97	28
1650	28
1651.04	28
1652.07	30
1653.11	30
1654.14	30
1655.17	26
1656.21	27
1657.24	28
1658.27	26
1659.31	30
1660.34	28
1661.37	28
1662.4	22
1663.43	22
1664.47	28
1665.5	28
1666.53	27
1667.56	30
1668.59	24
1669.62	32
1670.66	29
1671.69	32
1672.72	30
1673.75	26
1674.78	29
1675.81	26
1676.84	30
1677.87	34
1678.9	24
1679.93	32
1680.96	26
1681.98	29
1683.01	30
1684.04	28
1685.07	24
1686.1	24
1687.13	25
1688.16	26
1689.18	24
1690.21	28
1691.24	26
1692.27	30
1693.3	25
1694.32	26
1695.35	26
1696.38	26
1697.4	25
1698.43	25
1699.46	26
1700.48	30
1701.51	28
1702.54	29
1703.56	30
1704.59	26
1705.61	24
1706.64	26
1707.66	28
1708.69	29
1709.71	26
1710.74	28
1711.76	22
1712.79	24
1713.81	31
1714.83	27
1715.86	31
1716.88	28
1717.91	22
1718.93	30
1719.95	31
1720.98	30
1722	26
1723.02	29
1724.04	32
1725.07	24
1726.09	31
1727.11	29
1728.13	26
1729.15	32
1730.18	32
1731.2	26
1732.22	24
1733.24	24
1734.26	28
1735.28	22
1736.3	28
1737.32	32
1738.34	29
1739.36	26
1740.38	29
1741.4	27
1742.42	28
1743.44	22
1744.46	26
1745.48	27
1746.5	30
1747.52	30
1748.54	26
1749.56	28
1750.58	32
1751.6	27
1752.61	30
1753.63	26
1754.65	30
1755.67	28
1756.68	30
1757.7	24
1758.72	31
1759.74	32
1760.75	29
1761.77	28
1762.79	18
1763.8	28
1764.82	32
1765.83	24
1766.85	28
1767.87	28
1768.88	24
1769.9	24
1770.91	26
1771.93	32
1772.94	28
1773.96	29
1774.97	25
1775.99	22
1777	25
1778.02	30
1779.03	28
1780.04	30
1781.06	26
1782.07	24
1783.09	28
1784.1	28
1785.11	27
1786.13	28
1787.14	24
1788.15	22
1789.16	30
1790.18	27
1791.19	30
1792.2	27
1793.21	21
1794.22	26
1795.23	29
1796.25	27
1797.26	32
1798.27	28
1799.28	26
1800.29	26
1801.3	22
1802.31	26
1803.32	26
1804.33	24
1805.34	27
1806.35	28
1807.36	28
1808.37	27
1809.38	23
1810.39	26
1811.4	26
1812.41	28
1813.42	26
1814.42	29
1815.43	22
1816.44	28
1817.45	27
1818.46	27
1819.47	29
1820.47	28
1821.48	25
1822.49	28
1823.49	22
1824.5	33
1825.51	22
1826.52	29
1827.52	32
1828.53	24
1829.53	28
1830.54	24
1831.55	26
1832.55	28
1833.56	29
1834.56	24
1835.57	28
1836.57	26
1837.58	30
1838.58	24
1839.59	24
1840.59	33
1841.6	28
1842.6	30
1843.61	28
1844.61	28
1845.61	29
1846.62	28
1847.62	27
1848.62	28
1849.63	24
1850.63	28
1851.63	25
1852.64	32
1853.64	30
1854.64	27
1855.64	28
1856.64	26
1857.65	26
1858.65	28
1859.65	26
1860.65	31
1861.65	22
1862.65	29
1863.65	26
1864.66	32
1865.66	28
1866.66	26
1867.66	29
1868.66	25
1869.66	22
1870.66	28
1871.66	25
1872.66	28
1873.66	30
1874.66	30
1875.65	26
1876.65	28
1877.65	28
1878.65	24
1879.65	22
1880.65	29
1881.65	30
1882.64	30
1883.64	28
1884.64	28
1885.64	23
1886.63	23
1887.63	28
1888.63	22
1889.63	29
1890.62	27
1891.62	28
1892.62	26
1893.61	32
1894.61	23
1895.6	25
1896.6	26
1897.6	24
1898.59	29
1899.59	28
1900.58	29
1901.58	30
1902.57	26
1903.57	24
1904.56	29
1905.56	26
1906.55	26
1907.54	28
1908.54	28
1909.53	26
1910.53	28
1911.52	26
1912.51	30
1913.51	28
1914.5	22
1915.49	28
1916.49	31
1917.48	28
1918.47	32
1919.46	25
1920.46	26
1921.45	28
1922.44	33
1923.43	28
1924.42	27
1925.41	26
1926.41	28
1927.4	30
1928.39	24
1929.38	34
1930.37	30
1931.36	26
1932.35	27
1933.34	27
1934.33	26
1935.32	26
1936.31	27
1937.3	28
1938.29	26
1939.28	27
1940.27	26
1941.26	27
1942.24	28
1943.23	28
1944.22	26
1945.21	26
1946.2	24
1947.19	22
1948.17	25
1949.16	29
1950.15	28
1951.14	24
1952.12	22
1953.11	25
1954.1	29
1955.09	28
1956.07	18
1957.06	26
1958.05	35
1959.03	25
1960.02	30
1961	28
1961.99	22
1962.98	24
1963.96	24
1964.95	26
1965.93	26
1966.92	22
1967.9	28
1968.89	28
1969.87	23
1970.85	26
1971.84	26
1972.82	28
1973.81	28
1974.79	28
1975.78	26
1976.76	26
1977.74	25
1978.73	28
1979.71	29
1980.69	27
1981.67	24
1982.66	24
1983.64	32
1984.62	24
1985.6	27
1986.59	22
1987.57	27
1988.55	23
1989.53	25
1990.51	24
1991.49	27
1992.47	29
1993.45	27
1994.44	24
1995.42	24
1996.4	26
1997.38	25
1998.36	26
1999.34	31
2000.32	22
2001.3	24
2002.28	20
2003.26	24
2004.24	31
2005.22	22
2006.19	31
2007.17	24
2008.15	27
2009.13	27
2010.11	26
2011.09	27
2012.06	25
2013.04	24
2014.02	26
2015	29
2015.98	28
2016.95	26
2017.93	21
2018.91	26
2019.88	26
2020.86	26
2021.84	26
2022.81	25
2023.79	28
2024.77	24
2025.74	25
2026.72	28
2027.69	24
2028.67	26
2029.65	27
2030.62	30
2031.6	26
2032.57	28
2033.55	26
2034.52	27
2035.5	24
2036.47	28
2037.44	26
2038.42	24
2039.39	31
2040.36	27
2041.34	27
2042.31	29
2043.29	27
2044.26	28
2045.23	22
2046.2	26
2047.18	28
2048.15	26
2049.12	24
2050.09	28
2051.07	23
2052.04	28
2053.01	24
2053.98	23
2054.95	22
2055.93	28
2056.9	27
2057.87	26
2058.84	25
2059.81	29
2060.78	27
2061.75	26
2062.72	27
2063.69	24
2064.66	24
2065.63	25
2066.6	29
2067.57	22
2068.54	26
2069.51	27
2070.48	24
2071.45	27
2072.42	26
2073.38	22
2074.35	28
2075.32	29
2076.29	26
2077.26	24
2078.23	24
2079.19	28
2080.16	28
2081.13	22
2082.1	22
2083.06	27
2084.03	30
2085	16
2085.96	26
2086.93	30
2087.9	30
2088.86	27
2089.83	28
2090.8	20
2091.76	24
2092.73	28
2093.69	28
2094.66	30
2095.62	25
2096.59	25
2097.55	29
2098.52	26
2099.48	26
2100.45	25
2101.41	26
2102.38	21
2103.34	20
2104.31	29
2105.27	24
2106.23	28
2107.2	26
2108.16	26
2109.12	24
2110.09	26
2111.05	28
2112.01	27
2112.98	30
2113.94	25
2114.9	28
2115.86	24
2116.82	23
2117.79	26
2118.75	26
2119.71	26
2120.67	26
2121.63	26
2122.59	29
2123.55	24
2124.52	28
2125.48	28
2126.44	26
2127.4	25
2128.36	24
2129.32	28
2130.28	26
2131.24	27
2132.2	29
2133.16	23
2134.12	27
2135.08	16
2136.04	25
2136.99	30
2137.95	28
2138.91	24
2139.87	26
2140.83	25
2141.79	26
2142.75	25
2143.7	27
2144.66	28
2145.62	25.9795
2146.58	20.0134
2147.53	24.1366
2148.49	25.9657
2149.45	26.9084
2150.41	18.3235
2151.36	25.8936
2152.32	22.5014
2153.27	25.0972
2154.23	24.4463
2155.19	24.1124
2156.14	22.5217
2157.1	25.9285
2158.06	26.7475
2159.01	23.696
2159.97	25.7025
2160.92	26.0025
2161.88	28.655
2162.83	21.9069
2163.79	29.2353
2164.74	26
2165.7	29.9001
2166.65	17.7584
2167.61	27.2119
2168.56	23.5554
2169.51	22.7278
2170.47	25.2509
2171.42	23.9757
2172.38	27.0316
2173.33	24.1324
2174.28	24.8039
2175.24	26.4373
2176.19	26.109
2177.14	25.7239
2178.09	24.5504
2179.05	25.3591
2180	26.9098
2180.95	24.7688
2181.9	24.1923
2182.86	25.7296
2183.81	24.1494
2184.76	24.5517
2185.71	26.39
2186.66	26.1765
2187.61	22.7271
2188.57	22.788
2189.52	26.8401
2190.47	23.7327
2191.42	21.7829
2192.37	22.0588
2193.32	23.36
2194.27	26.1677
2195.22	25.0294
2196.17	22.524
2197.12	23.8704
2198.07	25.9227
2199.02	24.8922
2199.97	28.475
2200.92	26.4534
2201.87	24.4583
2202.82	23.9127
2203.76	26.5372
2204.71	26.274
2205.66	25.8286
2206.61	24.4879
2207.56	24.4182
2208.51	22.9184
2209.45	25.0009
2210.4	25.4953
2211.35	24.3026
2212.3	23.2032
2213.24	28.5032
2214.19	23.0962
2215.14	23.0872
2216.09	27.157
2217.03	25.2382
2217.98	25.9778
2218.93	24.9538
2219.87	27.7668
2220.82	24.6357
2221.77	20.9458
2222.71	24.0832
2223.66	25.8339
2224.6	24.8044
2225.55	24.0676
2226.49	22.8896
2227.44	23.4199
2228.38	23.4406
2229.33	27.1891
2230.27	28.9463
2231.22	26.9671
2232.16	26.5658
2233.11	24.447
2234.05	23.8195
2235	25.1403
2235.94	24.6003
2236.88	25.9354
2237.83	26.2059
2238.77	27.0458
2239.71	26.8502
2240.66	22.588
2241.6	21.1825
2242	22
2242.95	26
2243.9	27
2244.84	22
2245.79	26
2246.74	27
2247.69	27
2248.63	21
2249.58	26
2250.53	20
2251.47	24
2252.42	25
2253.37	26
2254.31	23
2255.26	26
2256.2	25
2257.15	28
2258.1	30
2259.04	24
2259.99	28
2260.93	25
2261.88	27
2262.82	25
2263.77	24
2264.71	25
2265.65	26
2266.6	26
2267.54	29
2268.49	23
2269.43	22
2270.38	24
2271.32	30
2272.26	26
2273.21	25
2274.15	24
2275.09	26
2276.04	27
2276.98	22
2277.92	27
2278.86	29
2279.81	23
2280.75	24
2281.69	24
2282.63	25
2283.57	24
2284.52	26
2285.46	22
2286.4	28
2287.34	20
2288.28	23
2289.22	20
2290.16	29
2291.1	29
2292.04	26
2292.98	22
2293.93	24
2294.86	21
2295.8	28
2296.74	20
2297.69	28
2298.62	28
2299.56	24
2300.5	27
2301.44	25
2302.38	25
2303.32	24
2304.26	20
2305.2	24
2306.14	26
2307.07	26
2308.01	28
2308.95	22
2309.89	23
2310.83	22
2311.76	26
2312.7	28
2313.64	22
2314.58	24
2315.51	26
2316.45	22
2317.39	26
2318.32	21
2319.26	24
2320.2	31
2321.13	26
2322.07	27
2323	29
2323.94	28
2324.88	27
2325.81	26
2326.75	29
2327.68	29
2328.62	26
2329.55	28
2330.49	30
2331.42	30
2332.36	30
2333.29	26
2334.22	23
2335.16	30
2336.09	25
2337.03	29
2337.96	22
2338.89	26
2339.83	24
2340.76	24
2341.69	28
2342.63	32
2343.56	23
2344.49	26
2345.43	26
2346.36	25
2347.29	24
2348.22	24
2349.15	31
2350.09	27
2351.02	28
2351.95	26
2352.88	24
2353.81	24
2354.74	30
2355.67	30
2356.61	27
2357.54	24
2358.47	30
2359.4	22
2360.33	28
2361.26	30
2362.19	29
2363.12	25
2364.05	27
2364.98	28
2365.91	25
2366.84	27
2367.77	30
2368.7	25
2369.62	24
2370.55	26
2371.48	26
2372.41	29
2373.34	24
2374.27	26
2375.2	26
2376.12	22
2377.05	28
2377.98	26
2378.91	20
2379.83	30
2380.76	28
2381.69	24
2382.62	32
2383.54	28
2384.47	26
2385.4	28
2386.32	29
2387.25	22
2388.18	23
2389.1	29
2390.03	25
2390.95	24
2391.88	28
2392.81	24
2393.73	28
2394.66	25
2395.58	26
2396.51	27
2397.43	28
2398.36	26
2399.28	27
2400.2	24
2401.13	24
2402.05	24
2402.98	24
2403.9	28
2404.83	28
2405.75	24
2406.67	27
2407.6	27
2408.52	26
2409.44	30
2410.37	28
2411.29	25
2412.21	26
2413.13	28
2414.06	28
2414.98	30
2415.9	25
2416.82	29
2417.74	16
2418.67	30
2419.59	26
2420.51	30
2421.43	29
2422.35	27
2423.27	26
2424.19	28
2425.11	27
2426.03	24
2426.96	24
2427.88	26
2428.8	24
2429.72	26
2430.64	28
2431.56	24
2432.48	24
2433.39	24
2434.31	25
2435.23	24
2436.15	27
2437.07	22
2437.99	28
2438.91	30
2439.83	31
2440.75	32
2441.67	27
2442.58	28
2443.5	29
2444.42	26
2445.34	25
2446.26	25
2447.17	26
2448.09	28
2449.01	26
2449.92	22
2450.84	31
2451.76	28
2452.68	26
2453.59	26
2454.51	26
2455.42	25
2456.34	28
2457.26	27
2458.17	32
2459.09	24
2460	27
2460.92	25
2461.83	31
2462.75	26
2463.66	29
2464.58	27
2465.49	30
2466.41	29
2467.32	26
2468.24	26
2469.15	26
2470.07	26
2470.98	26
2471.89	27
2472.81	16
2473.72	28
2474.64	28
2475.55	26
2476.46	30
2477.37	26
2478.29	24
2479.2	25
2480.11	23
2481.03	24
2481.94	25
2482.85	30
2483.76	26
2484.67	24
2485.59	26
2486.5	29
2487.41	26
2488.32	26
2489.23	25
2490.14	29
2491.05	24
2491.97	27
2492.88	26
2493.79	26
2494.7	27
2495.61	28
2496.52	27
2497.43	30
2498.34	16
2499.25	27
2500.16	28
2501.07	20
2501.98	28
2502.89	22
2503.79	24
2504.7	27
2505.61	27
2506.52	30
2507.43	30
2508.34	26
2509.25	28
2510.16	24
2511.06	24
2511.97	28
2512.88	29
2513.79	28
2514.69	29
2515.6	29
2516.51	28
2517.42	28
2518.32	27
2519.23	26
2520.14	31
2521.04	25
2521.95	28
2522.86	29
2523.76	26
2524.67	30
2525.57	23
2526.48	31
2527.39	28
2528.29	28
2529.2	22
2530.1	24
2531.01	30
2531.91	27
2532.82	26
2533.72	27
2534.63	29
2535.53	32
2536.44	27
2537.34	24
2538.24	30
2539.15	25
2540.05	28
2540.96	28
2541.86	20
2542.76	28
2543.67	26
2544.57	27
2545.47	27
2546.37	27
2547.28	24
2548.18	28
2549.08	28
2549.99	25
2550.89	24
2551.79	28
2552.69	28
2553.59	30
2554.49	27
2555.4	26
2556.3	33
2557.2	33
2558.1	29
2559	26
2559.9	24
2560.8	24
2561.7	21
2562.6	28
2563.5	24
2564.4	28
2565.3	30
2566.2	24
2567.1	26
2568	26
2568.9	27
2569.8	26
2570.7	29
2571.6	30
2572.5	27
2573.4	28
2574.3	28
2575.2	26
2576.1	26
2576.99	23
2577.89	25
2578.79	25
2579.69	32
2580.59	28
2581.48	26
2582.38	22
2583.28	27
2584.18	25
2585.07	30
2585.97	28
2586.87	28
2587.76	28
2588.66	26
2589.56	30
2590.45	24
2591.35	26
2592.25	23
2593.14	24
2594.04	28
2594.93	30
2595.83	26
2596.73	25
2597.62	25
2598.52	25
2599.41	24
2600.31	27
2601.2	24
2602.1	27
2602.99	26
2603.88	26
2604.78	29
2605.67	27
2606.57	28
2607.46	27
2608.35	28
2609.25	22
2610.14	27
2611.03	26
2611.93	29
2612.82	28
2613.71	27
2614.61	32
2615.5	29
2616.39	28
2617.29	27
2618.18	25
2619.07	33
2619.96	16
2620.85	25
2621.75	29
2622.64	24
2623.53	24
2624.42	28
2625.31	28
2626.2	22
2627.09	26
2627.98	26
2628.88	24
2629.77	24
2630.66	27
2631.55	29
2632.44	26
2633.33	24
2634.22	28
2635.11	26
2636	28
2636.89	26
2637.78	25
2638.66	24
2639.55	28
2640.44	22
2641.33	27
2642.22	24
2643.11	26
2644	26
2644.89	30
2645.78	25
2646.66	27
2647.55	32
2648.44	26
2649.33	32
2650.21	26
2651.1	26
2651.99	30
2652.88	27
2653.76	28
2654.65	30
2655.54	25
2656.42	30
2657.31	30
2658.2	28
2659.08	26
2659.97	26
2660.86	31
2661.74	26
2662.63	28
2663.51	24
2664.4	26
2665.29	30
2666.17	27
2667.06	28
2667.94	25
2668.83	28
2669.71	28
2670.6	26
2671.48	30
2672.36	28
2673.25	26
2674.13	24
2675.02	26
2675.9	26
2676.78	29
2677.67	25
2678.55	29
2679.43	30
2680.32	24
2681.2	28
2682.08	16
2682.97	26
2683.85	29
2684.73	29
2685.61	29
2686.5	28
2687.38	31
2688.26	28
2689.14	24
2690.03	33
2690.91	20
2691.79	27
2692.67	28
2693.55	28
2694.43	24
2695.31	26
2696.19	30
2697.08	25
2697.96	29
2698.84	24
2699.72	29
2700.6	25
2701.48	28
2702.36	24
2703.24	28
2704.12	27
2705	26
2705.88	29
2706.76	25
2707.64	28
2708.51	22
2709.39	28
2710.27	29
2711.15	28
2712.03	27
2712.91	24
2713.79	27
2714.67	28
2715.54	22
2716.42	30
2717.3	25
2718.18	30
2719.05	23
2719.93	32
2720.81	29
2721.69	32
2722.56	25
2723.44	23
2724.32	28
2725.19	25
2726.07	26
2726.95	28
2727.82	24
2728.7	26
2729.58	26
2730.45	31
2731.33	28
2732.2	29
2733.08	30
2733.95	27
2734.83	25
2735.7	24
2736.58	28
2737.45	28
2738.33	25
2739.2	26
2740.08	29
2740.95	28
2741.83	26
2742.7	28
2743.58	26
2744.45	25
2745.32	29
2746.2	23
2747.07	22
2747.94	22
2748.82	26
2749.69	32
2750.56	28
2751.44	23
2752.31	29
2753.18	31
2754.05	29
2754.93	25
2755.8	26
2756.67	21
2757.54	28
2758.42	22
2759.29	24
2760.16	26
2761.03	27
2761.9	27
2762.77	33
2763.64	27
2764.51	30
2765.38	29
2766.26	26
2767.13	31
2768	24
2768.87	26
2769.74	24
2770.61	28
2771.48	25
2772.35	28
2773.22	26
2774.09	27
2774.96	24
2775.83	29
2776.7	24
2777.56	28
2778.43	30
2779.3	24
2780.17	28
2781.04	28
2781.91	27
2782.78	27
2783.64	32
2784.51	30
2785.38	25
2786.25	27
2787.12	27
2787.98	22
2788.85	26
2789.72	29
2790.59	28
2791.45	26
2792.32	27
2793.19	32
2794.05	28
2794.92	24
2795.79	26
2796.65	31
2797.52	32
2798.38	30
2799.25	22
2800.12	27
2800.98	27
2801.85	26
2802.71	28
2803.58	27.5
2804.44	27
2805.31	30
2806.17	24
2807.04	22
2807.9	25
2808.77	27
2809.63	23
2810.5	28
2811.36	28
2812.22	29
2813.09	28
2813.95	31
2814.82	30
2815.68	24
2816.54	26
2817.41	30
2818.27	30
2819.13	31
2820	31
2820.86	28
2821.72	26
2822.58	30
2823.45	28
2824.31	28
2825.17	30
2826.03	26
2826.9	29
2827.76	24
2828.62	26
2829.48	29
2830.34	26
2831.2	30
2832.06	26
2832.92	26
2833.79	27
2834.65	31
2835.51	34
2836.37	26
2837.23	28
2838.09	26
2838.95	25
2839.81	28
2840.67	24
2841.53	30
2842.39	26
2843.25	26
2844.11	30
2844.97	26
2845.83	26
2846.68	28
2847.54	22
2848.4	30
2849.26	26
2850.12	28
2850.98	29
2851.84	28
2852.69	26
2853.55	22
2854.41	30
2855.27	26
2856.13	29
2856.98	31
2857.84	31
2858.7	29
2859.56	26
2860.41	25
2861.27	27
2862.13	28
2862.98	29
2863.84	26
2864.7	24
2865.55	33
2866.41	29
2867.27	26
2868.12	26
2868.98	30
2869.83	30
2870.69	31
2871.54	32
2872.4	30
2873.25	32
2874.11	31
2874.96	28
2875.82	22
2876.68	34
2877.53	34
2878.38	28
2879.24	30
2880.09	26
2880.95	32
2881.8	32
2882.65	34
2883.51	36
2884.36	33
2885.22	30
2886.07	31
2886.92	39
2887.77	37
2888.63	37
2889.48	32
2890.33	34
2891.19	37
2892.04	38
2892.89	34
2893.74	32
2894.6	43
2895.45	42
2896.3	39
2897.15	42
2898	51
2898.85	48
2899.71	53
2900.56	49
2901.41	48
2902.26	50
2903.11	55
2903.96	58
2904.81	63
2905.66	63
2906.51	67
2907.36	59
2908.21	51
2909.06	56
2909.91	55
2910.76	48
2911.61	50
2912.46	49
2913.31	48
2914.16	43
2915.01	50
2915.86	43
2916.71	40
2917.56	40
2918.41	44
2919.26	35
2920.1	33
2920.95	30
2921.8	36
2922.65	35
2923.5	36
2924.34	34
2925.19	34
2926.04	30
2926.89	33
2927.74	34
2928.58	29
2929.43	29
2930.28	34
2931.12	30
2931.97	31
2932.82	28
2933.66	30
2934.51	34
2935.36	32
2936.2	32
2937.05	33
2937.89	25
2938.74	29
2939.59	26
2940.43	28
2941.28	30
2942.12	28
2942.97	31
2943.81	28
2944.66	31
2945.5	30
2946.35	28
2947.19	28
2948.04	28
2948.88	28
2949.72	28
2950.57	32
2951.41	32
2952.26	28
2953.1	33
2953.94	36
2954.79	40
2955.63	28
2956.47	34
2957.32	37
2958.16	32
2959	40
2959.85	30
2960.69	40
2961.53	40
2962.37	32
2963.22	40
2964.06	37
2964.9	42
2965.74	34
2966.58	42
2967.42	41
2968.27	37
2969.11	43
2969.95	42
2970.79	36
2971.63	38
2972.47	38
2973.31	36
2974.15	32
2974.99	32
2975.83	34
2976.68	33
2977.52	32
2978.36	32
2979.2	34
2980.04	34
2980.88	34
2981.71	26
2982.55	32
2983.39	27
2984.23	29
2985.07	30
2985.91	31
2986.75	29
2987.59	32
2988.43	26
2989.27	24
2990.1	27
2990.94	29
2991.78	24
2992.62	27
2993.46	27
2994.3	27
2995.13	26
2995.97	28
2996.81	25
2997.64	26
2998.48	24
2999.32	26
