#Acq. time (s)=	3
#Accumulations=	3
#Range (cm-¹)=	100...3000
#Windows=	3
#Autofocus=	Off
#AutoExposure=	Off
#Spike filter=	Multiple accum.
#Delay time (s)=	0
#Binning=	1
#Readout mode=	Signal
#DeNoise=	Off
#ICS correction=	Off
#Dark correction=	Off
#Inst. Process=	Off
#Instrument=	LabRAM HR Evol
#Detector=	Syncerity OE
#Objective=	x100_VIS_LWD
#Grating=	600 (500nm)
#ND Filter=	25%
#Laser=	633nm_Edge
#Hole=	100.021
#Range=	Visible
#Project=	Bolus
#Sample=	A5
#Site=	stripside
#Title=	m15
#Remark=	
#Date=	03.11.2025 16:40
#Acquired=	03.11.2025 16:40:55
100.969	28
102.252	32
103.535	32
104.818	30
106.101	25
107.384	29
108.666	29
109.948	29
111.232	30
112.514	33
113.795	31
115.077	36
116.358	27
117.639	24
118.919	31
120.2	35
121.48	33
122.76	34
124.04	30
125.32	24
126.599	30
127.879	38
129.158	31
130.436	31
131.715	34
132.992	34
134.27	36
135.548	34
136.826	33
138.104	34
139.381	39
140.658	38
141.935	35
143.212	35
144.489	37
145.763	35
147.04	34
148.315	34
149.591	38
150.867	38
152.142	34
153.416	35
154.691	41
155.965	40
157.24	34
158.514	37
159.786	32
161.06	36
162.334	38
163.607	40
164.881	37
166.152	30
167.425	37
168.698	36
169.969	34
171.241	32
172.513	37
173.785	33
175.055	34
176.326	38
177.597	40
178.867	37
180.137	32
181.408	36
182.677	43
183.947	38
185.217	41
186.485	41
187.755	37
189.022	40
190.291	39
191.56	39
192.828	38
194.096	41
195.363	37
196.631	36
197.899	35
199.165	32
200.432	42
201.698	38
202.965	38
204.23	32
205.497	32
206.762	36
208.028	35
209.293	32
210.559	32
211.823	32
213.088	29
214.352	33
215.617	30
216.88	35
218.145	33
219.408	32
220.672	30
221.934	32
223.196	30
224.46	32
225.722	36
226.985	34
228.246	34
229.508	28
230.77	32
232.031	28
233.292	28
234.554	30
235.814	34
237.074	29
238.335	28
239.595	31
240.854	34
242.115	34
243.374	30
244.633	30
245.893	37
247.151	31
248.409	28
249.667	26
250.927	34
252.184	30
253.442	26
254.699	26
255.957	30
257.214	28
258.47	32
259.727	24
260.983	28
262.24	34
263.496	32
264.752	28
266.007	33
267.262	30
268.517	28
269.773	24
271.028	31
272.282	29
273.536	33
274.79	32
276.044	33
277.297	30
278.551	34
279.804	30
281.057	33
282.31	26
283.564	31
284.816	30
286.068	28
287.32	27
288.572	29
289.823	30
291.074	34
292.325	28
293.576	28
294.827	33
296.077	26
297.328	35
298.578	31
299.828	37
301.077	30
302.325	24
303.575	31
304.824	26
306.073	26
307.321	29
308.57	28
309.818	26
311.066	33
312.314	32
313.562	30
314.808	26
316.055	25
317.302	26
318.549	30
319.796	33
321.042	30
322.288	26
323.533	26
324.779	30
326.024	30
327.27	29
328.515	28
329.759	29
331.004	30
332.248	28
333.493	28
334.736	22
335.98	30
337.223	32
338.466	26
339.709	30
340.952	33
342.195	30
343.437	29
344.68	27
345.922	24
347.163	30
348.405	26
349.647	32
350.887	31
352.128	28
353.37	28
354.609	28
355.85	31
357.089	27
358.33	32
359.57	24
360.809	27
362.049	28
363.287	34
364.526	26
365.764	28
367.003	32
368.241	32
369.479	31
370.718	28
371.955	31
373.193	36
374.429	32
375.667	31
376.903	28
378.139	32
379.376	34
380.611	30
381.848	32
383.083	29
384.319	30
385.554	29
386.79	34
388.024	25
389.258	28
390.493	30
391.727	26
392.962	27
394.195	29
395.428	34
396.663	28
397.895	29
399.128	34
400.361	33
401.593	33
402.825	31
404.058	33
405.29	31
406.521	31
407.752	30
408.985	30
410.215	33
411.446	31
412.678	31
413.908	30
415.138	34
416.367	26
417.597	26
418.828	24
420.057	26
421.286	35
422.514	30
423.743	29
424.973	32
426.201	31
427.429	24
428.657	32
429.884	31
431.112	30
432.34	33
433.567	31
434.794	24
436.02	29
437.247	33
438.473	27
439.699	30
440.925	34
442.15	35
443.376	29
444.601	31
445.826	22
447.051	30
448.275	34
449.5	29
450.724	28
451.948	26
453.172	32
454.396	26
455.619	35
456.842	34
458.065	34
459.288	30
460.511	33
461.733	33
462.956	28
464.178	28
465.4	30
466.621	28
467.843	38
469.064	32
470.285	37
471.505	37
472.726	38
473.946	34
475.166	37
476.387	40
477.606	40
478.825	45
480.044	38
481.264	38
482.483	44
483.702	50
484.921	52
486.138	54
487.356	44
488.574	50
489.792	53
491.009	50
492.226	44
493.444	46
494.661	46
495.877	47
497.094	45
498.31	41
499.525	34
500.741	40
501.958	36
503.172	36
504.388	34
505.603	38
506.817	34
508.032	40
509.247	35
510.46	34
511.675	26
512.888	32
514.102	27
515.316	33
516.528	35
517.742	27
518.954	35
520.167	26
521.378	31
522.591	25
523.802	32
525.015	39
526.226	32
527.438	38
528.648	34
529.86	32
531.07	31
532.281	30
533.491	28
534.702	33
535.911	35
537.121	32
538.33	30
539.54	29
540.749	30
541.957	26
543.167	32
544.375	32
545.584	31
546.791	29
547.999	32
549.207	28
550.414	32
551.621	30
552.829	33
554.035	32
555.241	30
556.449	31
557.655	26
558.86	28
560.066	27
561.272	30
562.477	26
563.682	28
564.888	31
566.093	28
567.297	34
568.501	30
569.705	28
570.91	32
572.114	33
573.317	30
574.52	27
575.723	33
576.927	30
578.13	28
579.332	30
580.535	30
581.737	32
582.938	28
584.14	30
585.343	31
586.544	22
587.745	32
588.946	30
590.147	35
591.347	30
592.548	37
593.748	31
594.948	22
596.147	28
597.347	38
598.546	35
599.745	32
600.944	34
602.143	29
603.342	27
604.54	29
605.738	29
606.937	30
608.134	34
609.332	32
610.529	29
611.727	29
612.924	24
614.121	31
615.317	24
616.513	30
617.709	31
618.905	28
620.101	32
621.297	24
622.492	30
623.688	32
624.883	29
626.077	30
627.271	30
628.466	26
629.66	30
630.855	30
632.047	30
633.241	32
634.435	37
635.629	30
636.82	26
638.014	28
639.207	27
640.399	32
641.59	31
642.783	28
643.975	28
645.166	34
646.357	32
647.549	28
648.741	22
649.93	32
651.122	28
652.311	27
653.502	34
654.692	34
655.881	30
657.071	36
658.261	31
659.45	30
660.639	22
661.827	31
663.016	34
664.204	32
665.393	31
666.581	35
667.769	29
668.957	34
670.143	28
671.331	32
672.518	30
673.705	35
674.891	30
676.078	36
677.264	34
678.451	28
679.636	28
680.821	36
682.007	34
683.192	40
684.378	37
685.562	35
686.747	30
687.931	36
689.115	32
690.3	36
691.483	34
692.666	36
693.851	33
695.034	34
696.216	35
697.4	40
698.582	38
699.764	32
700.948	32
702.129	36
703.311	38
704.493	36
705.674	40
706.855	46
708.036	44
709.218	42
710.399	42
711.579	46
712.759	39
713.939	38
715.12	26
716.299	34
717.478	33
718.657	30
719.836	32
721.015	29
722.195	37
723.373	30
724.552	28
725.729	30
726.907	26
728.085	31
729.262	34
730.44	30
731.617	25
732.795	26
733.972	29
735.148	28
736.324	31
737.501	33
738.677	32
739.852	30
741.028	20
742.203	31
743.379	32
744.554	30
745.729	25
746.903	29
748.078	34
749.252	31
750.426	32
751.599	28
752.772	24
753.946	34
755.119	18
756.293	31
757.466	31
758.639	29
759.811	28
760.984	27
762.155	22
763.327	28
764.499	27
765.67	32
766.842	26
768.013	30
769.183	28
770.354	30
771.525	32
772.696	36
773.865	34
775.035	32
776.205	34
777.375	28
778.544	30
779.713	28
780.882	27
782.052	33
783.219	34
784.388	35
785.557	30
786.724	35
787.892	30
789.06	32
790.227	34
791.395	28
792.562	37
793.728	32
794.895	28
796.061	33
797.228	32
798.395	34
799.56	30
800.726	33
801.891	26
803.057	33
804.221	35
805.387	28
806.551	28
807.716	30
808.879	28
810.044	32
811.208	30
812.372	34
813.535	20
814.699	30
815.862	32
817.025	31
818.188	26
819.351	33
820.513	30
821.675	25
822.837	28
823.999	28
825.161	31
826.322	28
827.483	30
828.645	32
829.805	29
830.966	30
832.127	28
833.287	28
834.447	32
835.607	28
836.767	27
837.926	20
839.085	24
840.245	23
841.404	26
842.562	28
843.72	32
844.88	32
846.038	38
847.195	28
848.353	25
849.512	22
850.669	28
851.826	26
852.983	31
854.139	32
855.296	33
856.453	30
857.609	28
858.765	27
859.921	26
861.077	30
862.232	32
863.387	32
864.542	31
865.697	28
866.852	29
868.008	32
869.162	28
870.316	27
871.47	26
872.624	30
873.778	26
874.931	31
876.084	32
877.237	28
878.39	25
879.543	35
880.695	31
881.846	26
882.999	29
884.151	30
885.302	31
886.454	30
887.606	26
888.757	32
889.908	33
891.059	30
892.21	26
893.359	34
894.509	31
895.659	31
896.81	30
897.959	30
899.109	29
900.257	30
901.407	29
902.556	24
903.705	30
904.854	29
906.001	28
907.149	29
908.298	30
909.446	34
910.592	26
911.74	29
912.888	31
914.034	29
915.181	27
916.328	26
917.473	20
918.62	24
919.766	32
920.911	26
922.058	29
923.204	24
924.348	29
925.494	24
926.638	30
927.783	27
928.928	30
930.072	30
931.216	32
932.36	32
933.504	27
934.647	30
935.791	32
936.933	27
938.077	27
939.219	29
940.363	34
941.504	30
942.647	28
943.789	28
944.932	29
946.073	28
947.215	26
948.356	22
949.498	29
950.638	28
951.778	24
952.92	29
954.06	26
955.199	32
956.34	24
957.479	32
958.62	36
959.759	31
960.898	28
962.038	31
963.176	28
964.315	30
965.453	28
966.592	29
967.73	28
968.867	28
970.006	26
971.144	29.5
972.281	28
973.418	29
974.554	26
975.692	28
976.829	29
977.965	29
979.101	32
980.237	34
981.374	28
982.509	34
983.645	28
984.78	23
985.915	29
987.05	32
988.184	28
989.319	26
990.453	24
991.589	26
992.722	30
993.856	31
994.99	29
996.123	27
997.257	31
998.39	25
999.523	28
1000.66	30
1001.79	32
1002.92	32
1004.05	27
1005.18	28
1006.32	32
1007.45	22
1008.58	31
1009.71	26
1010.84	31
1011.97	27
1013.1	29
1014.23	32
1015.36	31
1016.49	30
1017.62	22
1018.75	24
1019.88	27
1021.01	26
1022.14	30
1023.27	34
1024.4	29
1025.53	28
1026.66	28
1027.79	26
1028.91	31
1030.04	28
1031.17	30
1032.3	30
1033.42	26
1034.55	28
1035.68	26
1036.81	28
1037.93	30
1039.06	24
1040.18	27
1041.31	26
1042.44	29
1043.56	24
1044.69	27
1045.81	29
1046.94	26
1048.06	20
1049.19	28
1050.31	28
1051.44	28
1052.56	28
1053.69	22
1054.81	26
1055.93	26
1057.06	28
1058.18	30
1059.3	26
1060.43	26
1061.55	30
1062.67	28
1063.79	32
1064.92	23
1066.04	30
1067.16	28
1068.28	28
1069.4	31
1070.52	26
1071.65	31
1072.77	28
1073.89	26
1075.01	25
1076.13	30
1077.25	27
1078.37	28
1079.49	26
1080.61	26
1081.73	28
1082.85	32
1083.97	22
1085.09	27
1086.2	24
1087.32	26
1088.44	30
1089.56	26
1090.68	27
1091.8	28
1092.91	27
1094.03	26
1095.15	26
1096.26	30
1097.38	22
1098.5	21
1099.61	30
1100.73	28
1101.85	24
1102.96	27
1104.08	27
1105.19	29
1106.31	29
1107.43	24
1108.54	26
1109.66	33
1110.77	24
1111.88	28
1113	26
1114.11	26
1115.23	26
1116.34	24
1117.46	30
1118.57	22
1119.68	29
1120.8	22
1121.91	23
1123.02	29
1124.13	24
1125.25	26
1126.36	22
1127.47	29
1128.58	24
1129.69	30
1130.8	25
1131.92	29
1133.03	31
1134.14	27
1135.25	29
1136.36	28
1137.47	29
1138.58	24
1139.69	25
1140.8	28
1141.91	26
1143.02	28
1144.13	28
1145.24	24
1146.35	29
1147.46	30
1148.56	26
1149.67	30
1150.78	26
1151.89	26
1153	27
1154.1	30
1155.21	26
1156.32	28
1157.43	32
1158.53	31
1159.64	29
1160.75	23
1161.85	28
1162.96	23
1164.07	22
1165.17	32
1166.28	28
1167.38	28
1168.49	34
1169.59	30
1170.7	32
1171.8	24
1172.91	24
1174.01	24
1175.12	27
1176.22	27
1177.32	26
1178.43	26
1179.53	29
1180.64	25
1181.74	28
1182.84	30
1183.94	30
1185.05	28
1186.15	29
1187.25	24
1188.35	22
1189.46	22
1190.56	22
1191.66	28
1192.76	27
1193.86	30
1194.96	29
1196.06	18.0343
1197.16	25.9438
1198.26	24.0391
1199.37	30
1200.47	28.064
1201.57	26.0147
1202.67	27.7451
1203.77	30.6429
1204.86	24.3776
1205.96	28.7546
1207.06	31.8587
1208.16	27.5061
1209.26	25.809
1210.36	24.6701
1211.46	26.8604
1212.56	27.1525
1213.65	28.4373
1214.75	25.4895
1215.85	29.2514
1216.95	28.2907
1218.04	28.7141
1219.14	27.3808
1220.24	24.6142
1221.33	27.162
1222.43	27.607
1223.53	28
1224.62	27.7687
1225.72	27.4608
1226.82	32.0082
1227.91	27.2519
1229.01	25.3139
1230.1	28.2438
1231.2	26.0882
1232.29	25.2263
1233.39	26.1374
1234.48	27.1398
1235.58	27.3578
1236.67	26.1029
1237.77	25.8773
1238.86	25.1922
1239.95	23.8352
1241.05	24.0687
1242.14	26.4428
1243.23	25.4492
1244.33	23.4974
1245.42	29.4231
1246.51	28.0498
1247.61	25.7564
1248.7	25.692
1249.79	25.2941
1250.88	25.6606
1251.97	27.6729
1253.07	26
1254.16	28.0863
1255.25	27.6407
1256.34	28.3676
1257.43	28.3382
1258.52	30.9902
1259.61	26.3473
1260.7	25.3322
1261.79	27.1582
1262.88	31.0647
1263.97	30.217
1265.06	26.1254
1266.15	26.9027
1267.24	25.7309
1268.33	23.7874
1269.42	24.9899
1270.51	26.6945
1271.6	26.2344
1272.68	22.8705
1273.77	20.4643
1274.86	26.4722
1275.95	27.7876
1277.04	23.1148
1278.12	22.9799
1279.21	25.4011
1280.3	26.5985
1281.39	26.9748
1282.47	23.1029
1283.56	24.7723
1284.65	30.3755
1285.73	27.5822
1286.82	25.3183
1287.91	26.1955
1288.99	28.6956
1290.08	25.2818
1291.16	25.8578
1292.25	26.4946
1293.33	29.0297
1294.42	26.4617
1295.5	27.2012
1296.59	22.6168
1297.67	27.5094
1298.76	25.3253
1299.84	26.1005
1300.92	26.5256
1302.01	25.7144
1303.09	22.7106
1304.17	28.9912
1305.26	20.4136
1306.34	23.8747
1307.34	22
1308.43	24
1309.52	24
1310.61	28
1311.7	25
1312.78	24
1313.87	30
1314.96	29
1316.04	26
1317.13	28
1318.22	24
1319.3	27
1320.39	28
1321.48	24
1322.56	26
1323.65	24
1324.73	30
1325.82	26
1326.9	22
1327.99	26
1329.07	27
1330.16	27
1331.24	24
1332.33	24
1333.41	25
1334.5	29
1335.58	24
1336.66	28
1337.75	26
1338.83	30
1339.91	28
1341	29
1342.08	25
1343.16	26
1344.24	26
1345.33	29
1346.41	27
1347.49	24
1348.57	26
1349.65	28
1350.74	28
1351.82	29
1352.9	25
1353.98	26
1355.06	28
1356.14	27
1357.22	24
1358.3	24
1359.38	23
1360.46	28
1361.54	28
1362.62	29
1363.7	20
1364.78	24
1365.86	26
1366.94	26
1368.02	24
1369.09	26
1370.17	20
1371.25	28
1372.33	26
1373.41	21
1374.48	28
1375.56	30
1376.64	23
1377.72	29
1378.79	26
1379.87	30
1380.95	24
1382.02	28
1383.1	30
1384.17	28
1385.25	26
1386.33	24
1387.4	25
1388.48	29
1389.55	26
1390.63	33
1391.7	31
1392.78	29
1393.85	29
1394.93	26
1396	27
1397.07	30
1398.15	31
1399.22	26
1400.3	20
1401.37	28
1402.44	28
1403.52	28
1404.59	29
1405.66	32
1406.73	31
1407.81	28
1408.88	28
1409.95	28
1411.02	30
1412.09	31
1413.17	28
1414.24	25
1415.31	39
1416.38	30
1417.45	35
1418.52	26
1419.59	36
1420.66	27
1421.73	28
1422.8	26
1423.87	25
1424.94	29
1426.01	27
1427.08	28
1428.15	28
1429.22	32
1430.29	28
1431.35	30
1432.42	26
1433.49	27
1434.56	24
1435.63	29
1436.69	27
1437.76	30
1438.83	28
1439.9	26
1440.96	30
1442.03	26
1443.1	27
1444.17	27
1445.23	22
1446.3	24
1447.36	26
1448.43	28
1449.49	28
1450.56	32
1451.63	28
1452.69	29
1453.76	31
1454.82	29
1455.89	25
1456.95	25
1458.01	30
1459.08	27
1460.14	26
1461.21	28
1462.27	29
1463.34	29
1464.4	28
1465.46	30
1466.52	24
1467.59	26
1468.65	24
1469.71	27
1470.77	36
1471.84	24
1472.9	28
1473.96	22
1475.02	28
1476.08	26
1477.15	28
1478.21	27
1479.27	29
1480.33	27
1481.39	31
1482.45	20
1483.51	34
1484.57	22
1485.63	28
1486.69	24
1487.75	26
1488.81	24
1489.87	26
1490.93	26
1491.99	28
1493.05	22
1494.1	31
1495.16	20
1496.22	26
1497.28	27
1498.34	26
1499.4	26
1500.45	27
1501.51	26
1502.57	31
1503.63	25
1504.68	31
1505.74	27
1506.8	24
1507.85	29
1508.91	23
1509.97	26
1511.02	25
1512.08	29
1513.13	30
1514.19	30
1515.24	25
1516.3	26
1517.35	28
1518.41	26
1519.46	28
1520.52	30
1521.57	27
1522.63	25
1523.68	31
1524.73	30
1525.79	28
1526.84	25
1527.9	34
1528.95	24
1530	29
1531.05	29
1532.11	28
1533.16	26
1534.21	30
1535.26	30
1536.32	24
1537.37	31
1538.42	29
1539.47	22
1540.52	28
1541.57	24
1542.63	28
1543.68	26
1544.73	26
1545.78	29
1546.83	33
1547.88	27
1548.93	26
1549.98	29
1551.03	28
1552.08	26
1553.13	27
1554.18	29
1555.23	24
1556.27	29
1557.32	35
1558.37	28
1559.42	31
1560.47	28
1561.52	35
1562.56	24
1563.61	27
1564.66	30
1565.71	28
1566.75	26
1567.8	28
1568.85	31
1569.9	31
1570.94	30
1571.99	26
1573.03	30
1574.08	28
1575.13	30
1576.17	24
1577.22	29
1578.26	30
1579.31	30
1580.35	26
1581.4	26
1582.44	24
1583.49	26
1584.53	28
1585.58	30
1586.62	27
1587.66	31
1588.71	25
1589.75	24
1590.8	24
1591.84	27
1592.88	24
1593.92	30
1594.97	32
1596.01	27
1597.05	30
1598.1	31
1599.14	32
1600.18	27
1601.22	20
1602.26	28
1603.3	32
1604.35	28
1605.39	30
1606.43	30
1607.47	27
1608.51	27
1609.55	26
1610.59	24
1611.63	28
1612.67	29
1613.71	22
1614.75	24
1615.79	28
1616.83	29
1617.87	30
1618.91	28
1619.95	32
1620.99	25
1622.02	30
1623.06	24
1624.1	31
1625.14	26
1626.18	30
1627.21	27
1628.25	28
1629.29	26
1630.33	27
1631.36	30
1632.4	26
1633.44	28
1634.48	28
1635.51	31
1636.55	33
1637.58	30
1638.62	26
1639.66	27
1640.69	29
1641.73	24
1642.76	29
1643.8	27
1644.83	28
1645.87	27
1646.9	29
1647.94	25
1648.97	28
1650	28
1651.04	29
1652.07	28
1653.11	24
1654.14	28
1655.17	26
1656.21	28
1657.24	26
1658.27	29
1659.31	28
1660.34	30
1661.37	28
1662.4	27
1663.43	26
1664.47	30
1665.5	24
1666.53	25
1667.56	26
1668.59	31
1669.62	28
1670.66	27
1671.69	26
1672.72	28
1673.75	20
1674.78	28
1675.81	24
1676.84	30
1677.87	26
1678.9	32
1679.93	30
1680.96	22
1681.98	30
1683.01	28
1684.04	26
1685.07	22
1686.1	26
1687.13	28
1688.16	28
1689.18	26
1690.21	28
1691.24	24
1692.27	27
1693.3	22
1694.32	30
1695.35	26
1696.38	26
1697.4	24
1698.43	31
1699.46	32
1700.48	26
1701.51	29
1702.54	27
1703.56	29
1704.59	28
1705.61	22
1706.64	23
1707.66	26
1708.69	29
1709.71	22
1710.74	28
1711.76	26
1712.79	29
1713.81	24
1714.83	24
1715.86	26
1716.88	29
1717.91	28
1718.93	22
1719.95	30
1720.98	24
1722	28
1723.02	28
1724.04	27
1725.07	26
1726.09	27
1727.11	27
1728.13	24
1729.15	32
1730.18	28
1731.2	26
1732.22	27
1733.24	32
1734.26	30
1735.28	25
1736.3	24
1737.32	25
1738.34	26
1739.36	28
1740.38	32
1741.4	25
1742.42	30
1743.44	20
1744.46	30
1745.48	30
1746.5	33
1747.52	27
1748.54	24
1749.56	28
1750.58	20
1751.6	26
1752.61	28
1753.63	32
1754.65	30
1755.67	28
1756.68	29
1757.7	29
1758.72	22
1759.74	26
1760.75	26
1761.77	29
1762.79	25
1763.8	31
1764.82	22
1765.83	26
1766.85	29
1767.87	26
1768.88	26
1769.9	26
1770.91	26
1771.93	30
1772.94	28
1773.96	30
1774.97	26
1775.99	33
1777	25
1778.02	28
1779.03	29
1780.04	27
1781.06	27
1782.07	31
1783.09	30
1784.1	29
1785.11	22
1786.13	22
1787.14	28
1788.15	32
1789.16	24
1790.18	28
1791.19	31
1792.2	30
1793.21	28
1794.22	22
1795.23	24
1796.25	22
1797.26	28
1798.27	28
1799.28	28
1800.29	30
1801.3	33
1802.31	26
1803.32	31
1804.33	29
1805.34	30
1806.35	30
1807.36	25
1808.37	26
1809.38	26
1810.39	28
1811.4	22
1812.41	30
1813.42	29
1814.42	28
1815.43	28
1816.44	25
1817.45	27
1818.46	27
1819.47	24
1820.47	28
1821.48	27
1822.49	33
1823.49	28
1824.5	29
1825.51	26
1826.52	27
1827.52	27
1828.53	29
1829.53	29
1830.54	27
1831.55	28
1832.55	30
1833.56	32
1834.56	27
1835.57	28
1836.57	26
1837.58	24
1838.58	22
1839.59	26
1840.59	26
1841.6	28
1842.6	32
1843.61	26
1844.61	30
1845.61	26
1846.62	26
1847.62	25
1848.62	28
1849.63	28
1850.63	27
1851.63	29
1852.64	30
1853.64	30
1854.64	27
1855.64	27
1856.64	28
1857.65	25
1858.65	26
1859.65	25
1860.65	25
1861.65	27
1862.65	26
1863.65	27
1864.66	30
1865.66	26
1866.66	28
1867.66	28
1868.66	22
1869.66	30
1870.66	28
1871.66	32
1872.66	32
1873.66	25
1874.66	27
1875.65	31
1876.65	28
1877.65	27
1878.65	27
1879.65	24
1880.65	24
1881.65	22
1882.64	26
1883.64	28
1884.64	26
1885.64	29
1886.63	31
1887.63	28
1888.63	30
1889.63	22
1890.62	32
1891.62	24
1892.62	31
1893.61	24
1894.61	26
1895.6	26
1896.6	31
1897.6	24
1898.59	28
1899.59	25
1900.58	27
1901.58	29
1902.57	29
1903.57	28
1904.56	28
1905.56	27
1906.55	27
1907.54	29
1908.54	28
1909.53	28
1910.53	29
1911.52	22
1912.51	22
1913.51	26
1914.5	25
1915.49	24
1916.49	28
1917.48	30
1918.47	28
1919.46	31
1920.46	24
1921.45	27
1922.44	26
1923.43	28
1924.42	29
1925.41	31
1926.41	26
1927.4	26
1928.39	24
1929.38	26
1930.37	30
1931.36	28
1932.35	24
1933.34	20
1934.33	26
1935.32	28
1936.31	24
1937.3	27
1938.29	29
1939.28	17
1940.27	28
1941.26	28
1942.24	26
1943.23	26
1944.22	28
1945.21	24
1946.2	26
1947.19	24
1948.17	26
1949.16	31
1950.15	30
1951.14	26
1952.12	24
1953.11	30
1954.1	28
1955.09	22
1956.07	32
1957.06	24
1958.05	24
1959.03	26
1960.02	28
1961	29
1961.99	26
1962.98	24
1963.96	26
1964.95	29
1965.93	26
1966.92	26
1967.9	24
1968.89	29
1969.87	28
1970.85	35
1971.84	28
1972.82	26
1973.81	27
1974.79	26
1975.78	27
1976.76	27
1977.74	24
1978.73	22
1979.71	30
1980.69	26
1981.67	22
1982.66	29
1983.64	26
1984.62	30
1985.6	26
1986.59	28
1987.57	26
1988.55	24
1989.53	27
1990.51	31
1991.49	26
1992.47	28
1993.45	29
1994.44	32
1995.42	29
1996.4	24
1997.38	28
1998.36	32
1999.34	20
2000.32	27
2001.3	24
2002.28	29
2003.26	24
2004.24	30
2005.22	27
2006.19	22
2007.17	24
2008.15	29
2009.13	25
2010.11	29
2011.09	30
2012.06	28
2013.04	23
2014.02	26
2015	29
2015.98	24
2016.95	26
2017.93	26
2018.91	28
2019.88	26
2020.86	26
2021.84	22
2022.81	24
2023.79	22
2024.77	28
2025.74	27
2026.72	26
2027.69	26
2028.67	30
2029.65	26
2030.62	30
2031.6	23
2032.57	28
2033.55	24
2034.52	24
2035.5	22
2036.47	25
2037.44	24
2038.42	30
2039.39	26
2040.36	28
2041.34	32
2042.31	26
2043.29	28
2044.26	24
2045.23	26
2046.2	24
2047.18	25
2048.15	24
2049.12	28
2050.09	25
2051.07	29
2052.04	30
2053.01	29
2053.98	26
2054.95	25
2055.93	30
2056.9	24
2057.87	28
2058.84	24
2059.81	29
2060.78	26
2061.75	29
2062.72	23
2063.69	26
2064.66	31
2065.63	27
2066.6	22
2067.57	28
2068.54	25
2069.51	28
2070.48	23
2071.45	22
2072.42	22
2073.38	27
2074.35	26
2075.32	22
2076.29	26
2077.26	29
2078.23	26
2079.19	28
2080.16	29
2081.13	26
2082.1	27
2083.06	22
2084.03	24
2085	20
2085.96	25
2086.93	27
2087.9	30
2088.86	23
2089.83	25
2090.8	26
2091.76	27
2092.73	24
2093.69	24
2094.66	27
2095.62	32
2096.59	29
2097.55	29
2098.52	26
2099.48	26
2100.45	27
2101.41	28
2102.38	27
2103.34	25
2104.31	23
2105.27	26
2106.23	26
2107.2	26
2108.16	25
2109.12	29
2110.09	26
2111.05	26
2112.01	26
2112.98	25
2113.94	23
2114.9	24
2115.86	26
2116.82	28
2117.79	26
2118.75	28
2119.71	19
2120.67	28
2121.63	26
2122.59	30
2123.55	23
2124.52	23
2125.48	26
2126.44	28
2127.4	26
2128.36	28
2129.32	25
2130.28	30
2131.24	29
2132.2	28
2133.16	26
2134.12	25
2135.08	24
2136.04	22
2136.99	29
2137.95	26
2138.91	16
2139.87	20
2140.83	22
2141.79	22
2142.75	28
2143.7	24
2144.66	25
2145.62	23.9907
2146.58	27.9332
2147.53	27.9875
2148.49	27.8109
2149.45	23.1935
2150.41	30.4069
2151.36	23.7367
2152.32	27.2825
2153.27	25.6713
2154.23	24.8137
2155.19	28.3729
2156.14	24.549
2157.1	25.4097
2158.06	28.6029
2159.01	26.843
2159.97	22
2160.92	21.9975
2161.88	25.144
2162.83	25.2767
2163.79	24.8088
2164.74	29.5931
2165.7	26.7393
2166.65	30.6639
2167.61	24.1016
2168.56	20.9429
2169.51	24
2170.47	26.2206
2171.42	24
2172.38	24.5337
2173.33	23.7065
2174.28	26.1681
2175.24	28.3265
2176.19	27.6814
2177.14	23.0312
2178.09	26.6723
2179.05	27.5913
2180	25.2676
2180.95	21.6095
2181.9	24.3247
2182.86	27.549
2183.81	24.0359
2184.76	23.2588
2185.71	25.2549
2186.66	25.9705
2187.61	27.6013
2188.57	26.1041
2189.52	24.3052
2190.47	25.6032
2191.42	21.2301
2192.37	23.5441
2193.32	25.36
2194.27	24.1348
2195.22	25.8853
2196.17	24.2706
2197.12	24.4218
2198.07	22.3748
2199.02	23.0908
2199.97	21.8199
2200.92	24.4602
2201.87	26.7153
2202.82	24.1843
2203.76	24.6657
2204.71	24.3873
2205.66	22.7158
2206.61	26.3325
2207.56	28.8495
2208.51	25.1244
2209.45	26.0017
2210.4	25.5247
2211.35	25.0972
2212.3	25.4867
2213.24	26.7839
2214.19	25.0809
2215.14	24.6464
2216.09	27.0523
2217.03	27.7402
2217.98	24.9024
2218.93	26.4195
2219.87	25.1567
2220.82	22.2791
2221.77	24.53
2222.71	24.3604
2223.66	22.2604
2224.6	25.1118
2225.55	21.748
2226.49	24.7541
2227.44	27.0221
2228.38	26.0093
2229.33	23.8787
2230.27	25.3765
2231.22	25.9829
2232.16	24.5371
2233.11	24.9505
2234.05	26
2235	26.1471
2235.94	26.1901
2236.88	27.823
2237.83	28.3824
2238.77	25.6339
2239.71	27.523
2240.66	26.4851
2241.6	21.7036
2242	20
2242.95	23
2243.9	22
2244.84	25
2245.79	26
2246.74	24
2247.69	27
2248.63	26
2249.58	26
2250.53	26
2251.47	23
2252.42	22
2253.37	31
2254.31	23
2255.26	29
2256.2	20
2257.15	24
2258.1	24
2259.04	28
2259.99	22
2260.93	29
2261.88	28
2262.82	24
2263.77	20
2264.71	26
2265.65	24
2266.6	23
2267.54	24
2268.49	22
2269.43	24
2270.38	24
2271.32	22
2272.26	25
2273.21	26
2274.15	30
2275.09	23
2276.04	26
2276.98	29
2277.92	18
2278.86	24
2279.81	23
2280.75	28
2281.69	26
2282.63	27
2283.57	24
2284.52	29
2285.46	26
2286.4	26
2287.34	22
2288.28	23
2289.22	26
2290.16	26
2291.1	29
2292.04	24
2292.98	24
2293.93	27
2294.86	24
2295.8	24
2296.74	24
2297.69	22
2298.62	27
2299.56	26
2300.5	29
2301.44	27
2302.38	24
2303.32	22
2304.26	25
2305.2	24
2306.14	23
2307.07	25
2308.01	26
2308.95	24
2309.89	26
2310.83	22
2311.76	28
2312.7	22
2313.64	27
2314.58	22
2315.51	25
2316.45	28
2317.39	24
2318.32	29
2319.26	26
2320.2	28
2321.13	24
2322.07	28
2323	26
2323.94	22
2324.88	21
2325.81	23
2326.75	25
2327.68	26
2328.62	28
2329.55	23
2330.49	28
2331.42	29
2332.36	27
2333.29	28
2334.22	24
2335.16	26
2336.09	26
2337.03	30
2337.96	25
2338.89	26
2339.83	30
2340.76	22
2341.69	26
2342.63	26
2343.56	24
2344.49	29
2345.43	27
2346.36	25
2347.29	28
2348.22	26
2349.15	24
2350.09	27
2351.02	26
2351.95	26
2352.88	25
2353.81	26
2354.74	24
2355.67	26
2356.61	31
2357.54	24
2358.47	16
2359.4	29
2360.33	21
2361.26	28
2362.19	26
2363.12	23
2364.05	29
2364.98	27
2365.91	22
2366.84	28
2367.77	24
2368.7	27
2369.62	20
2370.55	32
2371.48	24
2372.41	24
2373.34	26
2374.27	24
2375.2	27
2376.12	26
2377.05	22
2377.98	24
2378.91	29
2379.83	24
2380.76	24
2381.69	26
2382.62	23
2383.54	28
2384.47	26
2385.4	28
2386.32	29
2387.25	24
2388.18	25
2389.1	27
2390.03	31
2390.95	32
2391.88	23
2392.81	25
2393.73	28
2394.66	24
2395.58	25
2396.51	24
2397.43	23
2398.36	24
2399.28	23
2400.2	30
2401.13	30
2402.05	28
2402.98	18
2403.9	26
2404.83	28
2405.75	24
2406.67	26
2407.6	30
2408.52	26
2409.44	27
2410.37	29
2411.29	24
2412.21	22
2413.13	29
2414.06	28
2414.98	25
2415.9	30
2416.82	24
2417.74	28
2418.67	26
2419.59	20
2420.51	22
2421.43	26
2422.35	30
2423.27	24
2424.19	28
2425.11	26
2426.03	29
2426.96	29
2427.88	26
2428.8	29
2429.72	24
2430.64	27
2431.56	27
2432.48	30
2433.39	24
2434.31	32
2435.23	26
2436.15	24
2437.07	22
2437.99	26
2438.91	31
2439.83	28
2440.75	27
2441.67	28
2442.58	24
2443.5	28
2444.42	20
2445.34	26
2446.26	22
2447.17	29
2448.09	25
2449.01	26
2449.92	28
2450.84	29
2451.76	29
2452.68	26
2453.59	33
2454.51	24
2455.42	26
2456.34	22
2457.26	25
2458.17	26
2459.09	24
2460	25
2460.92	28
2461.83	28
2462.75	25
2463.66	27
2464.58	30
2465.49	28
2466.41	29
2467.32	29
2468.24	34
2469.15	25
2470.07	24
2470.98	32
2471.89	28
2472.81	30
2473.72	30
2474.64	26
2475.55	22
2476.46	27
2477.37	27
2478.29	28
2479.2	32
2480.11	24
2481.03	24
2481.94	24
2482.85	24
2483.76	28
2484.67	30
2485.59	24
2486.5	24
2487.41	28
2488.32	26
2489.23	24
2490.14	24
2491.05	32
2491.97	27
2492.88	28
2493.79	26
2494.7	30
2495.61	29
2496.52	28
2497.43	26
2498.34	25
2499.25	22
2500.16	26
2501.07	26
2501.98	26
2502.89	26
2503.79	23
2504.7	33
2505.61	29
2506.52	28
2507.43	30
2508.34	25
2509.25	26
2510.16	26
2511.06	24
2511.97	22
2512.88	27
2513.79	24
2514.69	29
2515.6	29
2516.51	30
2517.42	26
2518.32	31
2519.23	29
2520.14	24
2521.04	26
2521.95	28
2522.86	28
2523.76	28
2524.67	27
2525.57	23
2526.48	27
2527.39	26
2528.29	28
2529.2	29
2530.1	26
2531.01	29
2531.91	26
2532.82	27
2533.72	29
2534.63	30
2535.53	27
2536.44	30
2537.34	25
2538.24	30
2539.15	22
2540.05	31
2540.96	27
2541.86	24
2542.76	25
2543.67	31
2544.57	28
2545.47	28
2546.37	26
2547.28	26
2548.18	27
2549.08	26
2549.99	29
2550.89	38
2551.79	24
2552.69	28
2553.59	27
2554.49	26
2555.4	26
2556.3	22
2557.2	29
2558.1	25
2559	27
2559.9	27
2560.8	28
2561.7	27
2562.6	30
2563.5	25
2564.4	32
2565.3	24
2566.2	25
2567.1	27
2568	30
2568.9	26
2569.8	27
2570.7	28
2571.6	28
2572.5	24
2573.4	26
2574.3	28
2575.2	27
2576.1	26
2576.99	25
2577.89	22
2578.79	28
2579.69	29
2580.59	31
2581.48	28
2582.38	29
2583.28	24
2584.18	18
2585.07	33
2585.97	29
2586.87	24
2587.76	24
2588.66	29
2589.56	22
2590.45	20
2591.35	27
2592.25	26
2593.14	28
2594.04	26
2594.93	28
2595.83	28
2596.73	28
2597.62	24
2598.52	30
2599.41	26
2600.31	25
2601.2	24
2602.1	31
2602.99	26
2603.88	29
2604.78	26
2605.67	26
2606.57	26
2607.46	24
2608.35	25
2609.25	25
2610.14	29
2611.03	36
2611.93	28
2612.82	27
2613.71	29
2614.61	24
2615.5	29
2616.39	32
2617.29	28
2618.18	26
2619.07	24
2619.96	24
2620.85	29
2621.75	30
2622.64	23
2623.53	26
2624.42	24
2625.31	29
2626.2	24
2627.09	24
2627.98	31
2628.88	30
2629.77	26
2630.66	29
2631.55	24
2632.44	24
2633.33	31
2634.22	31
2635.11	28
2636	30
2636.89	24
2637.78	22
2638.66	28
2639.55	25
2640.44	24
2641.33	22
2642.22	22
2643.11	31
2644	29
2644.89	30
2645.78	25
2646.66	27
2647.55	27
2648.44	22
2649.33	28
2650.21	25
2651.1	24
2651.99	29
2652.88	26
2653.76	26
2654.65	28
2655.54	26
2656.42	26
2657.31	31
2658.2	28
2659.08	24
2659.97	26
2660.86	27
2661.74	24
2662.63	25
2663.51	28
2664.4	28
2665.29	28
2666.17	26
2667.06	26
2667.94	28
2668.83	22
2669.71	26
2670.6	28
2671.48	30
2672.36	26
2673.25	28
2674.13	29
2675.02	24
2675.9	31
2676.78	32
2677.67	29
2678.55	27
2679.43	29
2680.32	29
2681.2	30
2682.08	26
2682.97	29
2683.85	31
2684.73	26
2685.61	28
2686.5	28
2687.38	29
2688.26	31
2689.14	27
2690.03	26
2690.91	26
2691.79	31
2692.67	24
2693.55	22
2694.43	26
2695.31	28
2696.19	29
2697.08	26
2697.96	27
2698.84	22
2699.72	28
2700.6	28
2701.48	24
2702.36	31
2703.24	24
2704.12	18
2705	25
2705.88	27
2706.76	27
2707.64	29
2708.51	28
2709.39	24
2710.27	28
2711.15	32
2712.03	28
2712.91	32
2713.79	28
2714.67	27
2715.54	25
2716.42	27
2717.3	23
2718.18	28
2719.05	29
2719.93	29
2720.81	27
2721.69	32
2722.56	29
2723.44	27
2724.32	26
2725.19	28
2726.07	27
2726.95	32
2727.82	28
2728.7	28
2729.58	28
2730.45	24
2731.33	28
2732.2	29
2733.08	24
2733.95	27
2734.83	22
2735.7	28
2736.58	28
2737.45	30
2738.33	28
2739.2	27
2740.08	26
2740.95	29
2741.83	28
2742.7	29
2743.58	20
2744.45	31
2745.32	26
2746.2	25
2747.07	26
2747.94	23
2748.82	28
2749.69	27
2750.56	28
2751.44	29
2752.31	24
2753.18	30
2754.05	29
2754.93	28
2755.8	30
2756.67	22
2757.54	27
2758.42	28
2759.29	23
2760.16	24
2761.03	26
2761.9	28
2762.77	28
2763.64	31
2764.51	26
2765.38	22
2766.26	24
2767.13	28
2768	22
2768.87	30
2769.74	28
2770.61	26
2771.48	24
2772.35	30
2773.22	28
2774.09	30
2774.96	28
2775.83	28
2776.7	25
2777.56	28
2778.43	27
2779.3	30
2780.17	25
2781.04	27
2781.91	24
2782.78	24
2783.64	31
2784.51	28
2785.38	28
2786.25	28
2787.12	26
2787.98	30
2788.85	26
2789.72	26
2790.59	26
2791.45	26
2792.32	25
2793.19	26
2794.05	28
2794.92	31
2795.79	29
2796.65	28
2797.52	26
2798.38	28
2799.25	26
2800.12	24
2800.98	26
2801.85	20
2802.71	26
2803.58	29.5
2804.44	30
2805.31	24
2806.17	28
2807.04	30
2807.9	22
2808.77	26
2809.63	30
2810.5	28
2811.36	29
2812.22	29
2813.09	20
2813.95	35
2814.82	29
2815.68	29
2816.54	28
2817.41	24
2818.27	28
2819.13	27
2820	26
2820.86	29
2821.72	30
2822.58	31
2823.45	29
2824.31	28
2825.17	24
2826.03	29
2826.9	26
2827.76	30
2828.62	28
2829.48	23
2830.34	26
2831.2	31
2832.06	31
2832.92	31
2833.79	28
2834.65	31
2835.51	25
2836.37	30
2837.23	27
2838.09	29
2838.95	26
2839.81	24
2840.67	24
2841.53	28
2842.39	28
2843.25	32
2844.11	28
2844.97	28
2845.83	32
2846.68	34
2847.54	27
2848.4	30
2849.26	26
2850.12	26
2850.98	28
2851.84	29
2852.69	30
2853.55	23
2854.41	28
2855.27	29
2856.13	22
2856.98	22
2857.84	31
2858.7	27
2859.56	34
2860.41	22
2861.27	29
2862.13	26
2862.98	27
2863.84	27
2864.7	30
2865.55	27
2866.41	29
2867.27	26
2868.12	28
2868.98	28
2869.83	33
2870.69	24
2871.54	28
2872.4	29
2873.25	28
2874.11	33
2874.96	29
2875.82	30
2876.68	29
2877.53	33
2878.38	27
2879.24	34
2880.09	27
2880.95	28
2881.8	30
2882.65	34
2883.51	29
2884.36	33
2885.22	35
2886.07	35
2886.92	30
2887.77	26
2888.63	32
2889.48	36
2890.33	32
2891.19	32
2892.04	40
2892.89	41
2893.74	40
2894.6	39
2895.45	36
2896.3	42
2897.15	39
2898	48
2898.85	42
2899.71	46
2900.56	45
2901.41	51
2902.26	54
2903.11	48
2903.96	52
2904.81	58
2905.66	57
2906.51	62
2907.36	57
2908.21	53
2909.06	54
2909.91	60
2910.76	48
2911.61	44
2912.46	50
2913.31	42
2914.16	47
2915.01	40
2915.86	40
2916.71	38
2917.56	38
2918.41	38
2919.26	45
2920.1	30
2920.95	37
2921.8	34
2922.65	32
2923.5	30
2924.34	32
2925.19	26
2926.04	32
2926.89	26
2927.74	28
2928.58	27
2929.43	32
2930.28	26
2931.12	27
2931.97	28
2932.82	27
2933.66	34
2934.51	26
2935.36	32
2936.2	30
2937.05	30
2937.89	26
2938.74	33
2939.59	30
2940.43	30
2941.28	32
2942.12	30
2942.97	26
2943.81	29
2944.66	28
2945.5	24
2946.35	24
2947.19	32
2948.04	24
2948.88	30
2949.72	24
2950.57	33
2951.41	33
2952.26	29
2953.1	37
2953.94	35
2954.79	32
2955.63	35
2956.47	34
2957.32	34
2958.16	35
2959	31
2959.85	37
2960.69	38
2961.53	40
2962.37	38
2963.22	40
2964.06	39
2964.9	42
2965.74	40
2966.58	43
2967.42	40
2968.27	37
2969.11	37
2969.95	38
2970.79	39
2971.63	37
2972.47	33
2973.31	35
2974.15	34
2974.99	28
2975.83	28
2976.68	34
2977.52	30
2978.36	32
2979.2	30
2980.04	32
2980.88	34
2981.71	30
2982.55	26
2983.39	27
2984.23	26
2985.07	28
2985.91	31
2986.75	29
2987.59	25
2988.43	31
2989.27	28
2990.1	29
2990.94	24
2991.78	29
2992.62	29
2993.46	28
2994.3	28
2995.13	24
2995.97	25
2996.81	25
2997.64	26
2998.48	30
2999.32	26
