#Acq. time (s)=	3
#Accumulations=	3
#Range (cm-¹)=	100...3000
#Windows=	3
#Autofocus=	Off
#AutoExposure=	Off
#Spike filter=	Multiple accum.
#Delay time (s)=	0
#Binning=	1
#Readout mode=	Signal
#DeNoise=	Off
#ICS correction=	Off
#Dark correction=	Off
#Inst. Process=	Off
#Instrument=	LabRAM HR Evol
#Detector=	Syncerity OE
#Objective=	x100_VIS_LWD
#Grating=	600 (500nm)
#ND Filter=	25%
#Laser=	633nm_Edge
#Hole=	100.021
#Range=	Visible
#Project=	Bolus
#Sample=	A5
#Site=	stripside
#Title=	m13
#Remark=	
#Date=	03.11.2025 16:37
#Acquired=	03.11.2025 16:37:53
100.969	27
102.252	32
103.535	35
104.818	30
106.101	31
107.384	32
108.666	25
109.948	30
111.232	30
112.514	27
113.795	28
115.077	33
116.358	24
117.639	34
118.919	31
120.2	33
121.48	28
122.76	28
124.04	30
125.32	34
126.599	30
127.879	34
129.158	36
130.436	31
131.715	34
132.992	32
134.27	37
135.548	30
136.826	32
138.104	34
139.381	33
140.658	36
141.935	34
143.212	30
144.489	32
145.763	38
147.04	38
148.315	36
149.591	39
150.867	44
152.142	34
153.416	34
154.691	36
155.965	38
157.24	40
158.514	41
159.786	40
161.06	37
162.334	40
163.607	39
164.881	36
166.152	38
167.425	38
168.698	34
169.969	38
171.241	38
172.513	34
173.785	36
175.055	37
176.326	36
177.597	38
178.867	37
180.137	36
181.408	38
182.677	37
183.947	42
185.217	40
186.485	42
187.755	36
189.022	40
190.291	38
191.56	41
192.828	37
194.096	37
195.363	37
196.631	34
197.899	41
199.165	41
200.432	37
201.698	36
202.965	34
204.23	34
205.497	30
206.762	37
208.028	34
209.293	38
210.559	35
211.823	36
213.088	38
214.352	32
215.617	32
216.88	32
218.145	26
219.408	32
220.672	33
221.934	24
223.196	32
224.46	32
225.722	30
226.985	32
228.246	33
229.508	34
230.77	30
232.031	34
233.292	34
234.554	34
235.814	36
237.074	28
238.335	33
239.595	31
240.854	29
242.115	26
243.374	32
244.633	33
245.893	26
247.151	30
248.409	32
249.667	37
250.927	35
252.184	28
253.442	30
254.699	30
255.957	22
257.214	32
258.47	26
259.727	32
260.983	28
262.24	30
263.496	29
264.752	32
266.007	28
267.262	31
268.517	30
269.773	27
271.028	39
272.282	26
273.536	32
274.79	28
276.044	22
277.297	30
278.551	20
279.804	22
281.057	29
282.31	24
283.564	33
284.816	26
286.068	30
287.32	28
288.572	33
289.823	28
291.074	28
292.325	28
293.576	24
294.827	28
296.077	32
297.328	30
298.578	26
299.828	26
301.077	31
302.325	28
303.575	32
304.824	30
306.073	28
307.321	24
308.57	30
309.818	26
311.066	31
312.314	30
313.562	20
314.808	28
316.055	25
317.302	29
318.549	29
319.796	34
321.042	26
322.288	22
323.533	30
324.779	29
326.024	32
327.27	26
328.515	30
329.759	32
331.004	30
332.248	30
333.493	29
334.736	32
335.98	34
337.223	29
338.466	30
339.709	36
340.952	30
342.195	27
343.437	32
344.68	28
345.922	30
347.163	28
348.405	30
349.647	26
350.887	32
352.128	33
353.37	28
354.609	31
355.85	22
357.089	24
358.33	32
359.57	29
360.809	28
362.049	32
363.287	31
364.526	30
365.764	29
367.003	31
368.241	29
369.479	33
370.718	27
371.955	26
373.193	27
374.429	30
375.667	18
376.903	28
378.139	24
379.376	27
380.611	29
381.848	31
383.083	35
384.319	28
385.554	33
386.79	31
388.024	27
389.258	29
390.493	26
391.727	30
392.962	26
394.195	27
395.428	34
396.663	34
397.895	27
399.128	30
400.361	30
401.593	27
402.825	27
404.058	22
405.29	31
406.521	28
407.752	33
408.985	30
410.215	34
411.446	30
412.678	28
413.908	31
415.138	22
416.367	28
417.597	28
418.828	30
420.057	33
421.286	32
422.514	30
423.743	33
424.973	32
426.201	30
427.429	26
428.657	28
429.884	26
431.112	32
432.34	34
433.567	31
434.794	27
436.02	26
437.247	33
438.473	29
439.699	28
440.925	32
442.15	29
443.376	28
444.601	30
445.826	34
447.051	30
448.275	23
449.5	31
450.724	32
451.948	30
453.172	30
454.396	34
455.619	26
456.842	30
458.065	26
459.288	33
460.511	31
461.733	28
462.956	33
464.178	33
465.4	32
466.621	33
467.843	29
469.064	26
470.285	32
471.505	35
472.726	32
473.946	34
475.166	39
476.387	34
477.606	41
478.825	38
480.044	43
481.264	46
482.483	49
483.702	48
484.921	49
486.138	52
487.356	50
488.574	54
489.792	54
491.009	51
492.226	51
493.444	42
494.661	46
495.877	45
497.094	44
498.31	48
499.525	45
500.741	38
501.958	44
503.172	40
504.388	34
505.603	38
506.817	41
508.032	43
509.247	38
510.46	32
511.675	38
512.888	38
514.102	39
515.316	31
516.528	37
517.742	30
518.954	33
520.167	36
521.378	34
522.591	32
523.802	34
525.015	33
526.226	24
527.438	28
528.648	33
529.86	35
531.07	35
532.281	32
533.491	32
534.702	34
535.911	30
537.121	29
538.33	30
539.54	30
540.749	29
541.957	32
543.167	30
544.375	31
545.584	30
546.791	28
547.999	30
549.207	31
550.414	30
551.621	28
552.829	31
554.035	30
555.241	27
556.449	30
557.655	35
558.86	32
560.066	30
561.272	30
562.477	34
563.682	29
564.888	32
566.093	34
567.297	29
568.501	32
569.705	30
570.91	31
572.114	29
573.317	28
574.52	24
575.723	33
576.927	27
578.13	35
579.332	28
580.535	32
581.737	29
582.938	31
584.14	28
585.343	33
586.544	24
587.745	28
588.946	30
590.147	31
591.347	34
592.548	26
593.748	27
594.948	30
596.147	29
597.347	32
598.546	26
599.745	33
600.944	26
602.143	26
603.342	28
604.54	30
605.738	25
606.937	32
608.134	28
609.332	30
610.529	28
611.727	28
612.924	31
614.121	31
615.317	30
616.513	30
617.709	29
618.905	30
620.101	28
621.297	25
622.492	28
623.688	28
624.883	34
626.077	26
627.271	28
628.466	31
629.66	30
630.855	35
632.047	33
633.241	29
634.435	30
635.629	30
636.82	30
638.014	31
639.207	34
640.399	31
641.59	32
642.783	27
643.975	32
645.166	29
646.357	31
647.549	30
648.741	27
649.93	30
651.122	29
652.311	30
653.502	27
654.692	32
655.881	31
657.071	34
658.261	26
659.45	34
660.639	30
661.827	34
663.016	29
664.204	34
665.393	32
666.581	37
667.769	30
668.957	38
670.143	34
671.331	30
672.518	33
673.705	34
674.891	32
676.078	35
677.264	27
678.451	36
679.636	33
680.821	30
682.007	37
683.192	36
684.378	37
685.562	34
686.747	36
687.931	36
689.115	34
690.3	38
691.483	37
692.666	34
693.851	33
695.034	38
696.216	38
697.4	39
698.582	34
699.764	30
700.948	36
702.129	36
703.311	44
704.493	42
705.674	40
706.855	43
708.036	47
709.218	48
710.399	52
711.579	48
712.759	42
713.939	43
715.12	38
716.299	40
717.478	30
718.657	30
719.836	28
721.015	30
722.195	28
723.373	30
724.552	28
725.729	26
726.907	30
728.085	29
729.262	30
730.44	28
731.617	28
732.795	32
733.972	26
735.148	28
736.324	36
737.501	36
738.677	32
739.852	28
741.028	26
742.203	33
743.379	29
744.554	22
745.729	30
746.903	29
748.078	26
749.252	29
750.426	22
751.599	29
752.772	28
753.946	26
755.119	31
756.293	30
757.466	28
758.639	37
759.811	30
760.984	32
762.155	29
763.327	31
764.499	34
765.67	33
766.842	28
768.013	34
769.183	30
770.354	30
771.525	30
772.696	31
773.865	27
775.035	30
776.205	29
777.375	28
778.544	29
779.713	30
780.882	32
782.052	26
783.219	36
784.388	32
785.557	35
786.724	32
787.892	30
789.06	34
790.227	29
791.395	35
792.562	33
793.728	26
794.895	30
796.061	28
797.228	34
798.395	30
799.56	33
800.726	29
801.891	36
803.057	28
804.221	28
805.387	30
806.551	28
807.716	30
808.879	32
810.044	28
811.208	27
812.372	33
813.535	32
814.699	31
815.862	26
817.025	28
818.188	33
819.351	26
820.513	33
821.675	30
822.837	30
823.999	30
825.161	31
826.322	33
827.483	28
828.645	29
829.805	30
830.966	30
832.127	28
833.287	26
834.447	29
835.607	32
836.767	31
837.926	24
839.085	28
840.245	34
841.404	27
842.562	33
843.72	33
844.88	24
846.038	26
847.195	27
848.353	32
849.512	30
850.669	30
851.826	27
852.983	32
854.139	30
855.296	32
856.453	32
857.609	28
858.765	30
859.921	28
861.077	30
862.232	28
863.387	36
864.542	30
865.697	31
866.852	28
868.008	22
869.162	29
870.316	34
871.47	32
872.624	30
873.778	30
874.931	32
876.084	31
877.237	29
878.39	27
879.543	35
880.695	28
881.846	34
882.999	34
884.151	34
885.302	30
886.454	30
887.606	28
888.757	34
889.908	28
891.059	28
892.21	25
893.359	27
894.509	29
895.659	28
896.81	27
897.959	28
899.109	34
900.257	23
901.407	31
902.556	25
903.705	26
904.854	32
906.001	27
907.149	27
908.298	24
909.446	32
910.592	28
911.74	32
912.888	28
914.034	25
915.181	29
916.328	30
917.473	26
918.62	28
919.766	29
920.911	26
922.058	30
923.204	23
924.348	29
925.494	28
926.638	28
927.783	32
928.928	31
930.072	27
931.216	30
932.36	30
933.504	28
934.647	30
935.791	26
936.933	26
938.077	22
939.219	24
940.363	26
941.504	25
942.647	27
943.789	32
944.932	26
946.073	31
947.215	28
948.356	30
949.498	28
950.638	32
951.778	28
952.92	31
954.06	31
955.199	30
956.34	28
957.479	28
958.62	30
959.759	30
960.898	26
962.038	26
963.176	25
964.315	25
965.453	30
966.592	28
967.73	26
968.867	24
970.006	30
971.144	30
972.281	30
973.418	24
974.554	31
975.692	26
976.829	27
977.965	33
979.101	24
980.237	29
981.374	28
982.509	28
983.645	30
984.78	29
985.915	28
987.05	28
988.184	33
989.319	31
990.453	27
991.589	24
992.722	28
993.856	22
994.99	29
996.123	28
997.257	25
998.39	24
999.523	27
1000.66	30
1001.79	30
1002.92	28
1004.05	30
1005.18	24
1006.32	30
1007.45	28
1008.58	33
1009.71	25
1010.84	26
1011.97	31
1013.1	28
1014.23	28
1015.36	27
1016.49	28
1017.62	26
1018.75	27
1019.88	26
1021.01	26
1022.14	24
1023.27	29
1024.4	30
1025.53	28
1026.66	28
1027.79	24
1028.91	24
1030.04	26
1031.17	28
1032.3	32
1033.42	30
1034.55	28
1035.68	24
1036.81	26
1037.93	28
1039.06	25
1040.18	24
1041.31	27
1042.44	30
1043.56	27
1044.69	30
1045.81	28
1046.94	28
1048.06	27
1049.19	31
1050.31	26
1051.44	28
1052.56	21
1053.69	28
1054.81	28
1055.93	30
1057.06	28
1058.18	28
1059.3	28
1060.43	26
1061.55	24
1062.67	26
1063.79	30
1064.92	29
1066.04	31
1067.16	26
1068.28	24
1069.4	27
1070.52	31
1071.65	24
1072.77	30
1073.89	26
1075.01	28
1076.13	29
1077.25	26
1078.37	24
1079.49	20
1080.61	25
1081.73	24
1082.85	24
1083.97	28
1085.09	26
1086.2	26
1087.32	24
1088.44	20
1089.56	29
1090.68	34
1091.8	22
1092.91	22
1094.03	30
1095.15	28
1096.26	28
1097.38	32
1098.5	27
1099.61	27
1100.73	26
1101.85	22
1102.96	31
1104.08	24
1105.19	26
1106.31	28
1107.43	24
1108.54	26
1109.66	22
1110.77	26
1111.88	32
1113	28
1114.11	32
1115.23	29
1116.34	32
1117.46	26
1118.57	26
1119.68	31
1120.8	20
1121.91	28
1123.02	31
1124.13	24
1125.25	25
1126.36	30
1127.47	26
1128.58	30
1129.69	22
1130.8	28
1131.92	29
1133.03	23
1134.14	28
1135.25	28
1136.36	24
1137.47	26
1138.58	28
1139.69	26
1140.8	28
1141.91	27
1143.02	24
1144.13	25
1145.24	32
1146.35	31
1147.46	21
1148.56	24
1149.67	31
1150.78	26
1151.89	26
1153	25
1154.1	29
1155.21	33
1156.32	30
1157.43	25
1158.53	28
1159.64	24
1160.75	28
1161.85	28
1162.96	30
1164.07	28
1165.17	26
1166.28	32
1167.38	28
1168.49	25
1169.59	25
1170.7	26
1171.8	30
1172.91	26
1174.01	26
1175.12	22
1176.22	27
1177.32	20
1178.43	28
1179.53	27
1180.64	28
1181.74	22
1182.84	28
1183.94	24
1185.05	25
1186.15	34
1187.25	24
1188.35	30
1189.46	24
1190.56	28
1191.66	26
1192.76	27
1193.86	29
1194.96	30
1196.06	25.0098
1197.16	25.9566
1198.26	25.9764
1199.37	28.0153
1200.47	26.0882
1201.57	26.9363
1202.67	22.2654
1203.77	29.5771
1204.86	27.5495
1205.96	28.6325
1207.06	22.3043
1208.16	22.5753
1209.26	26.302
1210.36	29.6701
1211.46	22.8529
1212.56	28.6209
1213.65	25.9977
1214.75	27.8284
1215.85	22.6435
1216.95	21.5735
1218.04	25.4075
1219.14	28.0186
1220.24	25.3388
1221.33	28.203
1222.43	28.1484
1223.53	26.6374
1224.62	26.8274
1225.72	29.2232
1226.82	24.4371
1227.91	28.928
1229.01	26.343
1230.1	27.5526
1231.2	23.6281
1232.29	24.9416
1233.39	27.1861
1234.48	26.8161
1235.58	26.2845
1236.67	25.7386
1237.77	27.2451
1238.86	24.7745
1239.95	28.4093
1241.05	27.7648
1242.14	30.5311
1243.23	28.8143
1244.33	24.1151
1245.42	29.6312
1246.51	24.5441
1247.61	25.7093
1248.7	26.951
1249.79	23.9412
1250.88	26.0056
1251.97	25.5334
1253.07	26.6962
1254.16	24.951
1255.25	23.5652
1256.34	27.4966
1257.43	27.4369
1258.52	30.2843
1259.61	27.1867
1260.7	23.6664
1261.79	23.3382
1262.88	26.8338
1263.97	27.217
1265.06	25.4638
1266.15	25.9616
1267.24	27.6717
1268.33	26.655
1269.42	28.3461
1270.51	26.2949
1271.6	25.2014
1272.68	25.1905
1273.77	30.2923
1274.86	23.5028
1275.95	24.5716
1277.04	25.1912
1278.12	25.9058
1279.21	23.9064
1280.3	27.4015
1281.39	23.8347
1282.47	27.0316
1283.56	24.4216
1284.65	24.6029
1285.73	24.4697
1286.82	25.2745
1287.91	25.6569
1288.99	26.2629
1290.08	27.4806
1291.16	24.9317
1292.25	26.976
1293.33	25.3354
1294.42	28.6564
1295.5	27.6688
1296.59	25.8707
1297.67	24.2159
1298.76	26.1158
1299.84	25.5293
1300.92	28.4395
1302.01	26.0441
1303.09	26.2665
1304.17	28.9755
1305.26	28.5717
1306.34	25.0725
1307.34	26
1308.43	22
1309.52	29
1310.61	22
1311.7	26
1312.78	24
1313.87	26
1314.96	31
1316.04	24
1317.13	29
1318.22	25
1319.3	25
1320.39	24
1321.48	26
1322.56	20
1323.65	24
1324.73	26
1325.82	26
1326.9	26
1327.99	26
1329.07	26
1330.16	31
1331.24	31
1332.33	28
1333.41	28
1334.5	27
1335.58	27
1336.66	27
1337.75	26
1338.83	26
1339.91	26
1341	29
1342.08	24
1343.16	28
1344.24	29
1345.33	26
1346.41	26
1347.49	27
1348.57	30
1349.65	28
1350.74	25
1351.82	28
1352.9	25
1353.98	30
1355.06	32
1356.14	26
1357.22	26
1358.3	24
1359.38	24
1360.46	28
1361.54	24
1362.62	27
1363.7	27
1364.78	26
1365.86	28
1366.94	28
1368.02	30
1369.09	23
1370.17	28
1371.25	28
1372.33	29
1373.41	24
1374.48	25
1375.56	20
1376.64	29
1377.72	28
1378.79	30
1379.87	28
1380.95	25
1382.02	28
1383.1	26
1384.17	26
1385.25	29
1386.33	26
1387.4	31
1388.48	29
1389.55	31
1390.63	28
1391.7	26
1392.78	28
1393.85	29
1394.93	29
1396	30
1397.07	26
1398.15	20
1399.22	30
1400.3	30
1401.37	32
1402.44	32
1403.52	28
1404.59	31
1405.66	36
1406.73	30
1407.81	32
1408.88	26
1409.95	33
1411.02	30
1412.09	28
1413.17	28
1414.24	30
1415.31	35
1416.38	33
1417.45	28
1418.52	30
1419.59	37
1420.66	30
1421.73	32
1422.8	30
1423.87	26
1424.94	29
1426.01	30
1427.08	31
1428.15	30
1429.22	22
1430.29	24
1431.35	27
1432.42	24
1433.49	30
1434.56	29
1435.63	26
1436.69	27
1437.76	32
1438.83	30
1439.9	27
1440.96	26
1442.03	30
1443.1	30
1444.17	26
1445.23	31
1446.3	27
1447.36	22
1448.43	28
1449.49	30
1450.56	28
1451.63	26
1452.69	27
1453.76	30
1454.82	25
1455.89	24
1456.95	30
1458.01	24
1459.08	26
1460.14	22
1461.21	26
1462.27	23
1463.34	28
1464.4	29
1465.46	28
1466.52	30
1467.59	26
1468.65	26
1469.71	29
1470.77	26
1471.84	26
1472.9	26
1473.96	33
1475.02	25
1476.08	31
1477.15	27
1478.21	27
1479.27	28
1480.33	28
1481.39	31
1482.45	33
1483.51	30
1484.57	28
1485.63	29
1486.69	32
1487.75	31
1488.81	29
1489.87	26
1490.93	30
1491.99	28
1493.05	28
1494.1	26
1495.16	28
1496.22	32
1497.28	28
1498.34	31
1499.4	26
1500.45	22
1501.51	30
1502.57	28
1503.63	24
1504.68	28
1505.74	31
1506.8	29
1507.85	27
1508.91	24
1509.97	22
1511.02	27
1512.08	29
1513.13	28
1514.19	28
1515.24	28
1516.3	31
1517.35	28
1518.41	28
1519.46	28
1520.52	29
1521.57	24
1522.63	28
1523.68	28
1524.73	26
1525.79	28
1526.84	28
1527.9	32
1528.95	28
1530	31
1531.05	25
1532.11	20
1533.16	28
1534.21	31
1535.26	31
1536.32	24
1537.37	27
1538.42	29
1539.47	29
1540.52	32
1541.57	24
1542.63	31
1543.68	26
1544.73	34
1545.78	28
1546.83	34
1547.88	26
1548.93	24
1549.98	23
1551.03	20
1552.08	30
1553.13	26
1554.18	29
1555.23	26
1556.27	28
1557.32	30
1558.37	26
1559.42	32
1560.47	27
1561.52	27
1562.56	30
1563.61	32
1564.66	31
1565.71	27
1566.75	30
1567.8	28
1568.85	26
1569.9	31
1570.94	28
1571.99	28
1573.03	27
1574.08	27
1575.13	31
1576.17	24
1577.22	28
1578.26	28
1579.31	32
1580.35	26
1581.4	28
1582.44	24
1583.49	24
1584.53	24
1585.58	31
1586.62	24
1587.66	31
1588.71	28
1589.75	30
1590.8	28
1591.84	26
1592.88	27
1593.92	31
1594.97	25
1596.01	24
1597.05	30
1598.1	27
1599.14	27
1600.18	29
1601.22	28
1602.26	31
1603.3	23
1604.35	26
1605.39	28
1606.43	22
1607.47	29
1608.51	25
1609.55	27
1610.59	22
1611.63	23
1612.67	28
1613.71	31
1614.75	30
1615.79	26
1616.83	28
1617.87	23
1618.91	30
1619.95	28
1620.99	27
1622.02	26
1623.06	26
1624.1	28
1625.14	27
1626.18	30
1627.21	31
1628.25	30
1629.29	23
1630.33	34
1631.36	28
1632.4	28
1633.44	26
1634.48	27
1635.51	26
1636.55	26
1637.58	30
1638.62	20
1639.66	27
1640.69	30
1641.73	28
1642.76	28
1643.8	30
1644.83	30
1645.87	31
1646.9	27
1647.94	29
1648.97	25
1650	26
1651.04	30
1652.07	30
1653.11	26
1654.14	28
1655.17	25
1656.21	24
1657.24	20
1658.27	25
1659.31	29
1660.34	33
1661.37	27
1662.4	28
1663.43	29
1664.47	24
1665.5	26
1666.53	26
1667.56	20
1668.59	28
1669.62	29
1670.66	28
1671.69	28
1672.72	22
1673.75	36
1674.78	24
1675.81	28
1676.84	27
1677.87	24
1678.9	24
1679.93	26
1680.96	28
1681.98	28
1683.01	26
1684.04	32
1685.07	28
1686.1	26
1687.13	25
1688.16	26
1689.18	28
1690.21	33
1691.24	31
1692.27	26
1693.3	30
1694.32	32
1695.35	31
1696.38	28
1697.4	28
1698.43	30
1699.46	30
1700.48	30
1701.51	26
1702.54	27
1703.56	30
1704.59	26
1705.61	26
1706.64	27
1707.66	26
1708.69	27
1709.71	28
1710.74	29
1711.76	24
1712.79	29
1713.81	28
1714.83	29
1715.86	26
1716.88	26
1717.91	26
1718.93	27
1719.95	26
1720.98	24
1722	24
1723.02	26
1724.04	26
1725.07	25
1726.09	26
1727.11	28
1728.13	28
1729.15	29
1730.18	33
1731.2	29
1732.22	29
1733.24	31
1734.26	23
1735.28	24
1736.3	25
1737.32	28
1738.34	28
1739.36	23
1740.38	27
1741.4	30
1742.42	24
1743.44	28
1744.46	28
1745.48	30
1746.5	24
1747.52	26
1748.54	27
1749.56	26
1750.58	30
1751.6	28
1752.61	31
1753.63	29
1754.65	30
1755.67	28
1756.68	30
1757.7	29
1758.72	25
1759.74	34
1760.75	29
1761.77	28
1762.79	28
1763.8	31
1764.82	30
1765.83	24
1766.85	26
1767.87	27
1768.88	32
1769.9	25
1770.91	32
1771.93	27
1772.94	29
1773.96	30
1774.97	26
1775.99	24
1777	32
1778.02	28
1779.03	26
1780.04	29
1781.06	28
1782.07	30
1783.09	29
1784.1	26
1785.11	25
1786.13	30
1787.14	29
1788.15	27
1789.16	26
1790.18	28
1791.19	31
1792.2	26
1793.21	30
1794.22	30
1795.23	27
1796.25	24
1797.26	28
1798.27	26
1799.28	28
1800.29	29
1801.3	31
1802.31	22
1803.32	28
1804.33	32
1805.34	31
1806.35	28
1807.36	24
1808.37	26
1809.38	30
1810.39	30
1811.4	26
1812.41	32
1813.42	31
1814.42	30
1815.43	22
1816.44	24
1817.45	29
1818.46	26
1819.47	27
1820.47	32
1821.48	28
1822.49	26
1823.49	31
1824.5	30
1825.51	29
1826.52	28
1827.52	26
1828.53	26
1829.53	24
1830.54	29
1831.55	20
1832.55	26
1833.56	26
1834.56	26
1835.57	24
1836.57	26
1837.58	26
1838.58	24
1839.59	28
1840.59	26
1841.6	31
1842.6	28
1843.61	33
1844.61	32
1845.61	27
1846.62	24
1847.62	25
1848.62	28
1849.63	27
1850.63	20
1851.63	26
1852.64	29
1853.64	27
1854.64	26
1855.64	27
1856.64	28
1857.65	26
1858.65	32
1859.65	24
1860.65	28
1861.65	24
1862.65	24
1863.65	27
1864.66	27
1865.66	27
1866.66	32
1867.66	23
1868.66	30
1869.66	27
1870.66	28
1871.66	24
1872.66	30
1873.66	27
1874.66	26
1875.65	23
1876.65	27
1877.65	29
1878.65	24
1879.65	22
1880.65	27
1881.65	33
1882.64	26
1883.64	28
1884.64	25
1885.64	32
1886.63	23
1887.63	22
1888.63	26
1889.63	30
1890.62	25
1891.62	29
1892.62	26
1893.61	31
1894.61	26
1895.6	30
1896.6	26
1897.6	24
1898.59	23
1899.59	24
1900.58	32
1901.58	26
1902.57	29
1903.57	25
1904.56	27
1905.56	27
1906.55	20
1907.54	24
1908.54	24
1909.53	29
1910.53	31
1911.52	22
1912.51	26
1913.51	30
1914.5	25
1915.49	24
1916.49	26
1917.48	28
1918.47	30
1919.46	21
1920.46	22
1921.45	24
1922.44	27
1923.43	33
1924.42	31
1925.41	29
1926.41	26
1927.4	28
1928.39	28
1929.38	25
1930.37	30
1931.36	26
1932.35	24
1933.34	28
1934.33	27
1935.32	27
1936.31	24
1937.3	24
1938.29	26
1939.28	28
1940.27	32
1941.26	27
1942.24	25
1943.23	25
1944.22	24
1945.21	30
1946.2	27
1947.19	26
1948.17	27
1949.16	27
1950.15	28
1951.14	29
1952.12	27
1953.11	24
1954.1	26
1955.09	24
1956.07	26
1957.06	25
1958.05	28
1959.03	25
1960.02	34
1961	24
1961.99	28
1962.98	30
1963.96	28
1964.95	26
1965.93	26
1966.92	22
1967.9	28
1968.89	26
1969.87	26
1970.85	29
1971.84	24
1972.82	30
1973.81	28
1974.79	26
1975.78	30
1976.76	26
1977.74	29
1978.73	26
1979.71	28
1980.69	26
1981.67	25
1982.66	28
1983.64	29
1984.62	28
1985.6	28
1986.59	29
1987.57	24
1988.55	28
1989.53	31
1990.51	30
1991.49	24
1992.47	22
1993.45	30
1994.44	29
1995.42	28
1996.4	26
1997.38	28
1998.36	29
1999.34	23
2000.32	29
2001.3	24
2002.28	27
2003.26	25
2004.24	26
2005.22	29
2006.19	29
2007.17	27
2008.15	29
2009.13	28
2010.11	20
2011.09	28
2012.06	16
2013.04	25
2014.02	27
2015	22
2015.98	26
2016.95	24
2017.93	29
2018.91	24
2019.88	27
2020.86	24
2021.84	30
2022.81	22
2023.79	30
2024.77	28
2025.74	26
2026.72	26
2027.69	24
2028.67	24
2029.65	28
2030.62	26
2031.6	26
2032.57	27
2033.55	28
2034.52	22
2035.5	23
2036.47	30
2037.44	25
2038.42	29
2039.39	24
2040.36	24
2041.34	26
2042.31	29
2043.29	25
2044.26	26
2045.23	27
2046.2	25
2047.18	20
2048.15	22
2049.12	22
2050.09	27
2051.07	29
2052.04	29
2053.01	27
2053.98	27
2054.95	25
2055.93	27
2056.9	28
2057.87	27
2058.84	29
2059.81	20
2060.78	28
2061.75	28
2062.72	31
2063.69	26
2064.66	30
2065.63	24
2066.6	26
2067.57	27
2068.54	26
2069.51	26
2070.48	29
2071.45	27
2072.42	24
2073.38	23
2074.35	25
2075.32	25
2076.29	28
2077.26	22
2078.23	30
2079.19	21
2080.16	29
2081.13	26
2082.1	31
2083.06	24
2084.03	24
2085	23
2085.96	24
2086.93	25
2087.9	25
2088.86	26
2089.83	24
2090.8	24
2091.76	24
2092.73	29
2093.69	30
2094.66	26
2095.62	25
2096.59	27
2097.55	24
2098.52	25
2099.48	22
2100.45	30
2101.41	25
2102.38	25
2103.34	23
2104.31	27
2105.27	27
2106.23	25
2107.2	23
2108.16	22
2109.12	29
2110.09	26
2111.05	25
2112.01	22
2112.98	28
2113.94	24
2114.9	23
2115.86	23
2116.82	26
2117.79	28
2118.75	24
2119.71	22
2120.67	24
2121.63	26
2122.59	27
2123.55	23
2124.52	28
2125.48	20
2126.44	23
2127.4	24
2128.36	26
2129.32	28
2130.28	24
2131.24	28
2132.2	26
2133.16	29
2134.12	24
2135.08	27
2136.04	26
2136.99	28
2137.95	22
2138.91	26
2139.87	25
2140.83	27
2141.79	24
2142.75	23
2143.7	27
2144.66	24
2145.62	26.9904
2146.58	23.9011
2147.53	24.1429
2148.49	26.0574
2149.45	25.9253
2150.41	27.9885
2151.36	25.9363
2152.32	23.1471
2153.27	22.2361
2154.23	26.5537
2155.19	22.3928
2156.14	25.5397
2157.1	27.0376
2158.06	26.6152
2159.01	29.5772
2159.97	30.5377
2160.92	25.1543
2161.88	27.1403
2162.83	22.0043
2163.79	24.3824
2164.74	27.398
2165.7	20.8451
2166.65	25.4318
2167.61	26.3227
2168.56	25.9881
2169.51	27.5222
2170.47	21.783
2171.42	26.7412
2172.38	26.1869
2173.33	18.3137
2174.28	23.7173
2175.24	25.3637
2176.19	26.0441
2177.14	25.6486
2178.09	26.2878
2179.05	24.7237
2180	25.6722
2180.95	22.7688
2181.9	24.5626
2182.86	23.2255
2183.81	25.3699
2184.76	20.8585
2185.71	28.8767
2186.66	26.103
2187.61	25.6013
2188.57	25.212
2189.52	24.3676
2190.47	26.9339
2191.42	27
2192.37	25.7647
2193.32	22.8159
2194.27	23.8127
2195.22	26.0853
2196.17	23.8355
2197.12	24.3446
2198.07	27.2685
2199.02	25.5411
2199.97	24.3275
2200.92	24.5276
2201.87	21.5624
2202.82	24.5421
2203.76	24.6804
2204.71	25.2474
2205.66	23.6157
2206.61	24.0961
2207.56	24.3009
2208.51	23.652
2209.45	26.692
2210.4	24.5341
2211.35	26.1734
2212.3	24.1471
2213.24	26.299
2214.19	23.8051
2215.14	25.6026
2216.09	30.2223
2217.03	27.218
2217.98	23.6198
2218.93	26.5966
2219.87	24.4636
2220.82	26.4046
2221.77	27.6327
2222.71	24.8604
2223.66	24.7396
2224.6	27.205
2225.55	24.6529
2226.49	24.8273
2227.44	25.036
2228.38	27.2141
2229.33	28.614
2230.27	24.4966
2231.22	24.3724
2232.16	26.1541
2233.11	22.8349
2234.05	23.681
2235	25.0735
2235.94	23.9815
2236.88	23.8922
2237.83	24.0441
2238.77	23.4256
2239.71	27.1224
2240.66	28.1543
2241.6	25.2753
2242	24
2242.95	26
2243.9	26
2244.84	29
2245.79	29
2246.74	21
2247.69	24
2248.63	25
2249.58	24
2250.53	26
2251.47	24
2252.42	29
2253.37	26
2254.31	26
2255.26	24
2256.2	27
2257.15	26
2258.1	24
2259.04	28
2259.99	26
2260.93	27
2261.88	26
2262.82	25
2263.77	28
2264.71	23
2265.65	23
2266.6	24
2267.54	24
2268.49	29
2269.43	26
2270.38	25
2271.32	28
2272.26	24
2273.21	26
2274.15	26
2275.09	22
2276.04	24
2276.98	29
2277.92	26
2278.86	28
2279.81	23
2280.75	30
2281.69	25
2282.63	25
2283.57	26
2284.52	24
2285.46	26
2286.4	22
2287.34	28
2288.28	28
2289.22	26
2290.16	22
2291.1	26
2292.04	24
2292.98	31
2293.93	26
2294.86	27
2295.8	27
2296.74	26
2297.69	28
2298.62	28
2299.56	21
2300.5	27
2301.44	28
2302.38	26
2303.32	19
2304.26	26
2305.2	22
2306.14	28
2307.07	22
2308.01	28
2308.95	26
2309.89	26
2310.83	26
2311.76	26
2312.7	30
2313.64	22
2314.58	27
2315.51	23
2316.45	24
2317.39	25
2318.32	29
2319.26	25
2320.2	24
2321.13	24
2322.07	24
2323	28
2323.94	28
2324.88	26
2325.81	27
2326.75	25
2327.68	26
2328.62	26
2329.55	22
2330.49	25
2331.42	28
2332.36	24
2333.29	24
2334.22	28
2335.16	28
2336.09	27
2337.03	26
2337.96	27
2338.89	27
2339.83	29
2340.76	18
2341.69	24
2342.63	26
2343.56	28
2344.49	31
2345.43	20
2346.36	34
2347.29	27
2348.22	27
2349.15	26
2350.09	29
2351.02	25
2351.95	30
2352.88	28
2353.81	24
2354.74	28
2355.67	26
2356.61	30
2357.54	23
2358.47	27
2359.4	25
2360.33	22
2361.26	27
2362.19	25
2363.12	22
2364.05	26
2364.98	26
2365.91	29
2366.84	27
2367.77	28
2368.7	21
2369.62	28
2370.55	22
2371.48	30
2372.41	26
2373.34	26
2374.27	23
2375.2	28
2376.12	26
2377.05	26
2377.98	29
2378.91	28
2379.83	30
2380.76	25
2381.69	24
2382.62	26
2383.54	31
2384.47	29
2385.4	26
2386.32	25
2387.25	26
2388.18	22
2389.1	18
2390.03	30
2390.95	24
2391.88	28
2392.81	26
2393.73	26
2394.66	22
2395.58	28
2396.51	29
2397.43	26
2398.36	29
2399.28	25
2400.2	30
2401.13	23
2402.05	28
2402.98	28
2403.9	28
2404.83	26
2405.75	28
2406.67	26
2407.6	20
2408.52	28
2409.44	27
2410.37	27
2411.29	25
2412.21	26
2413.13	28
2414.06	25
2414.98	29
2415.9	26
2416.82	22
2417.74	24
2418.67	24
2419.59	29
2420.51	30
2421.43	18
2422.35	29
2423.27	24
2424.19	21
2425.11	30
2426.03	28
2426.96	29
2427.88	25
2428.8	26
2429.72	23
2430.64	25
2431.56	25
2432.48	24
2433.39	24
2434.31	24
2435.23	32
2436.15	26
2437.07	29
2437.99	26
2438.91	27
2439.83	27
2440.75	28
2441.67	19
2442.58	27
2443.5	30
2444.42	31
2445.34	26
2446.26	30
2447.17	28
2448.09	29
2449.01	22
2449.92	24
2450.84	26
2451.76	29
2452.68	26
2453.59	26
2454.51	24
2455.42	30
2456.34	28
2457.26	30
2458.17	28
2459.09	28
2460	28
2460.92	29
2461.83	23
2462.75	28
2463.66	30
2464.58	26
2465.49	30
2466.41	29
2467.32	28
2468.24	29
2469.15	26
2470.07	25
2470.98	33
2471.89	29
2472.81	31
2473.72	25
2474.64	29
2475.55	30
2476.46	26
2477.37	25
2478.29	22
2479.2	22
2480.11	25
2481.03	22
2481.94	29
2482.85	28
2483.76	26
2484.67	27
2485.59	28
2486.5	24
2487.41	26
2488.32	28
2489.23	25
2490.14	25
2491.05	31
2491.97	14
2492.88	24
2493.79	20
2494.7	28
2495.61	28
2496.52	25
2497.43	28
2498.34	22
2499.25	32
2500.16	29
2501.07	29
2501.98	28
2502.89	28
2503.79	30
2504.7	26
2505.61	30
2506.52	22
2507.43	29
2508.34	18
2509.25	30
2510.16	25
2511.06	26
2511.97	26
2512.88	32
2513.79	28
2514.69	28
2515.6	24
2516.51	32
2517.42	26
2518.32	31
2519.23	27
2520.14	32
2521.04	29
2521.95	26
2522.86	35
2523.76	28
2524.67	25
2525.57	26
2526.48	28
2527.39	27
2528.29	24
2529.2	26
2530.1	24
2531.01	29
2531.91	28
2532.82	28
2533.72	24
2534.63	26
2535.53	33
2536.44	24
2537.34	21
2538.24	26
2539.15	28
2540.05	29
2540.96	32
2541.86	23
2542.76	29
2543.67	27
2544.57	27
2545.47	24
2546.37	26
2547.28	30
2548.18	27
2549.08	32
2549.99	26
2550.89	24
2551.79	23
2552.69	26
2553.59	28
2554.49	27
2555.4	28
2556.3	28
2557.2	29
2558.1	29
2559	29
2559.9	26
2560.8	26
2561.7	22
2562.6	25
2563.5	18
2564.4	27
2565.3	30
2566.2	28
2567.1	22
2568	25
2568.9	27
2569.8	32
2570.7	31
2571.6	31
2572.5	30
2573.4	24
2574.3	28
2575.2	25
2576.1	26
2576.99	20
2577.89	24
2578.79	28
2579.69	27
2580.59	25
2581.48	20
2582.38	30
2583.28	27
2584.18	28
2585.07	23
2585.97	27
2586.87	25
2587.76	24
2588.66	24
2589.56	24
2590.45	22
2591.35	29
2592.25	25
2593.14	24
2594.04	29
2594.93	28
2595.83	28
2596.73	22
2597.62	22
2598.52	29
2599.41	28
2600.31	29
2601.2	30
2602.1	30
2602.99	26
2603.88	25
2604.78	28
2605.67	26
2606.57	24
2607.46	22
2608.35	32
2609.25	28
2610.14	24
2611.03	29
2611.93	28
2612.82	28
2613.71	29
2614.61	29
2615.5	22
2616.39	27
2617.29	26
2618.18	24
2619.07	18
2619.96	24
2620.85	22
2621.75	31
2622.64	24
2623.53	24
2624.42	27
2625.31	22
2626.2	27
2627.09	30
2627.98	28
2628.88	27
2629.77	26
2630.66	29
2631.55	27
2632.44	30
2633.33	26
2634.22	28
2635.11	26
2636	27
2636.89	26
2637.78	31
2638.66	25
2639.55	30
2640.44	30
2641.33	27
2642.22	24
2643.11	28
2644	24
2644.89	28
2645.78	28
2646.66	24
2647.55	30
2648.44	22
2649.33	27
2650.21	20
2651.1	24
2651.99	32
2652.88	26
2653.76	26
2654.65	30
2655.54	28
2656.42	26
2657.31	28
2658.2	28
2659.08	30
2659.97	28
2660.86	28
2661.74	27
2662.63	31
2663.51	27
2664.4	28
2665.29	25
2666.17	22
2667.06	24
2667.94	22
2668.83	22
2669.71	30
2670.6	27
2671.48	29
2672.36	26
2673.25	29
2674.13	29
2675.02	27
2675.9	24
2676.78	23
2677.67	24
2678.55	26
2679.43	28
2680.32	30
2681.2	24
2682.08	27
2682.97	30
2683.85	26
2684.73	26
2685.61	24
2686.5	27
2687.38	24
2688.26	29
2689.14	26
2690.03	26
2690.91	18
2691.79	24
2692.67	29
2693.55	24
2694.43	30
2695.31	30
2696.19	28
2697.08	27
2697.96	30
2698.84	23
2699.72	24
2700.6	26
2701.48	27
2702.36	30
2703.24	29
2704.12	29
2705	28
2705.88	24
2706.76	27
2707.64	27
2708.51	22
2709.39	26
2710.27	28
2711.15	24
2712.03	31
2712.91	31
2713.79	24
2714.67	23
2715.54	24
2716.42	22
2717.3	30
2718.18	30
2719.05	28
2719.93	30
2720.81	26
2721.69	30
2722.56	30
2723.44	22
2724.32	29
2725.19	18
2726.07	26
2726.95	25
2727.82	24
2728.7	33
2729.58	26
2730.45	32
2731.33	27
2732.2	26
2733.08	26
2733.95	22
2734.83	27
2735.7	31
2736.58	30
2737.45	28
2738.33	27
2739.2	29
2740.08	20
2740.95	24
2741.83	24
2742.7	20
2743.58	24
2744.45	28
2745.32	26
2746.2	26
2747.07	28
2747.94	31
2748.82	26
2749.69	32
2750.56	27
2751.44	20
2752.31	27
2753.18	28
2754.05	28
2754.93	26
2755.8	28
2756.67	26
2757.54	24
2758.42	30
2759.29	28
2760.16	31
2761.03	25
2761.9	23
2762.77	24
2763.64	26
2764.51	26
2765.38	27
2766.26	25
2767.13	27
2768	26
2768.87	26
2769.74	27
2770.61	24
2771.48	28
2772.35	27
2773.22	25
2774.09	23
2774.96	24
2775.83	28
2776.7	28
2777.56	26
2778.43	26
2779.3	28
2780.17	32
2781.04	30
2781.91	28
2782.78	28
2783.64	29
2784.51	23
2785.38	27
2786.25	22
2787.12	30
2787.98	26
2788.85	27
2789.72	30
2790.59	29
2791.45	28
2792.32	25
2793.19	32
2794.05	29
2794.92	28
2795.79	31
2796.65	26
2797.52	28
2798.38	25
2799.25	29
2800.12	24
2800.98	29
2801.85	26
2802.71	25
2803.58	26
2804.44	26
2805.31	26
2806.17	28
2807.04	30
2807.9	28
2808.77	30
2809.63	28
2810.5	30
2811.36	32
2812.22	31
2813.09	24
2813.95	30
2814.82	28
2815.68	24
2816.54	31
2817.41	28
2818.27	29
2819.13	24
2820	28
2820.86	24
2821.72	28
2822.58	24
2823.45	26
2824.31	29
2825.17	24
2826.03	28
2826.9	25
2827.76	26
2828.62	27
2829.48	29
2830.34	31
2831.2	28
2832.06	28
2832.92	28
2833.79	29
2834.65	28
2835.51	28
2836.37	32
2837.23	31
2838.09	26
2838.95	26
2839.81	31
2840.67	25
2841.53	28
2842.39	30
2843.25	28
2844.11	30
2844.97	28
2845.83	24
2846.68	26
2847.54	24
2848.4	30
2849.26	28
2850.12	26
2850.98	22
2851.84	29
2852.69	29
2853.55	30
2854.41	26
2855.27	29
2856.13	22
2856.98	34
2857.84	22
2858.7	28
2859.56	27
2860.41	30
2861.27	28
2862.13	23
2862.98	27
2863.84	28
2864.7	27
2865.55	26
2866.41	24
2867.27	28
2868.12	22
2868.98	28
2869.83	29
2870.69	30
2871.54	28
2872.4	26
2873.25	28
2874.11	25
2874.96	34
2875.82	36
2876.68	32
2877.53	26
2878.38	36
2879.24	30
2880.09	32
2880.95	34
2881.8	30
2882.65	30
2883.51	29
2884.36	33
2885.22	35
2886.07	32
2886.92	38
2887.77	34
2888.63	34
2889.48	36
2890.33	38
2891.19	39
2892.04	30
2892.89	36
2893.74	38
2894.6	40
2895.45	46
2896.3	40
2897.15	50
2898	48
2898.85	46
2899.71	49
2900.56	57
2901.41	51
2902.26	54
2903.11	56
2903.96	58
2904.81	64
2905.66	56
2906.51	58
2907.36	64
2908.21	54
2909.06	54
2909.91	55
2910.76	61
2911.61	44
2912.46	52
2913.31	49
2914.16	47
2915.01	43
2915.86	41
2916.71	40
2917.56	41
2918.41	40
2919.26	39
2920.1	38
2920.95	35
2921.8	34
2922.65	41
2923.5	30
2924.34	35
2925.19	35
2926.04	28
2926.89	33
2927.74	31
2928.58	35
2929.43	30
2930.28	30
2931.12	35
2931.97	32
2932.82	28
2933.66	30
2934.51	28
2935.36	28
2936.2	28
2937.05	30
2937.89	31
2938.74	35
2939.59	31
2940.43	27
2941.28	31
2942.12	29
2942.97	29
2943.81	37
2944.66	30
2945.5	32
2946.35	29
2947.19	20
2948.04	28
2948.88	26
2949.72	32
2950.57	30
2951.41	39
2952.26	33
2953.1	32
2953.94	33
2954.79	33
2955.63	28
2956.47	32
2957.32	37
2958.16	39
2959	37
2959.85	37
2960.69	39
2961.53	42
2962.37	39
2963.22	38
2964.06	43
2964.9	42
2965.74	40
2966.58	36
2967.42	44
2968.27	40
2969.11	36
2969.95	30
2970.79	39
2971.63	32
2972.47	30
2973.31	33
2974.15	36
2974.99	35
2975.83	38
2976.68	28
2977.52	33
2978.36	29
2979.2	31
2980.04	31
2980.88	32
2981.71	27
2982.55	33
2983.39	28
2984.23	27
2985.07	29
2985.91	30
2986.75	30
2987.59	26
2988.43	18
2989.27	26
2990.1	31
2990.94	26
2991.78	32
2992.62	26
2993.46	24
2994.3	28
2995.13	27
2995.97	29
2996.81	27
2997.64	25
2998.48	22
2999.32	24
