#Acq. time (s)=	3
#Accumulations=	3
#Range (cm-¹)=	100...3000
#Windows=	3
#Autofocus=	Off
#AutoExposure=	Off
#Spike filter=	Multiple accum.
#Delay time (s)=	0
#Binning=	1
#Readout mode=	Signal
#DeNoise=	Off
#ICS correction=	Off
#Dark correction=	Off
#Inst. Process=	Off
#Instrument=	LabRAM HR Evol
#Detector=	Syncerity OE
#Objective=	x100_VIS_LWD
#Grating=	600 (500nm)
#ND Filter=	25%
#Laser=	633nm_Edge
#Hole=	100.021
#Range=	Visible
#Project=	Bolus
#Sample=	A5
#Site=	stripside
#Title=	m16
#Remark=	
#Date=	03.11.2025 16:43
#Acquired=	03.11.2025 16:43:20
100.969	34
102.252	41
103.535	42
104.818	47
106.101	46
107.384	39
108.666	41
109.948	36
111.232	40
112.514	41
113.795	38
115.077	39
116.358	37
117.639	40
118.919	37
120.2	41
121.48	45
122.76	47
124.04	42
125.32	45
126.599	43
127.879	43
129.158	48
130.436	45
131.715	42
132.992	41
134.27	44
135.548	34
136.826	50
138.104	48
139.381	46
140.658	45
141.935	46
143.212	49
144.489	48
145.763	49
147.04	48
148.315	48
149.591	48
150.867	50
152.142	50
153.416	48
154.691	52
155.965	52
157.24	49
158.514	48
159.786	51
161.06	48
162.334	51
163.607	49
164.881	46
166.152	49
167.425	48
168.698	53
169.969	43
171.241	49
172.513	49
173.785	46
175.055	51
176.326	45
177.597	50
178.867	42
180.137	45
181.408	52
182.677	52
183.947	55
185.217	52
186.485	47
187.755	49
189.022	50
190.291	55
191.56	48
192.828	54
194.096	55
195.363	50
196.631	42
197.899	47
199.165	51
200.432	45
201.698	42
202.965	53
204.23	46
205.497	47
206.762	48
208.028	44
209.293	49
210.559	46
211.823	47
213.088	49
214.352	42
215.617	42
216.88	46
218.145	40
219.408	49
220.672	42
221.934	48
223.196	46
224.46	42
225.722	45
226.985	38
228.246	41
229.508	36
230.77	42
232.031	46
233.292	37
234.554	39
235.814	41
237.074	37
238.335	41
239.595	40
240.854	38
242.115	40
243.374	40
244.633	35
245.893	45
247.151	41
248.409	37
249.667	38
250.927	38
252.184	40
253.442	37
254.699	42
255.957	38
257.214	38
258.47	41
259.727	39
260.983	34
262.24	42
263.496	34
264.752	36
266.007	36
267.262	44
268.517	33
269.773	38
271.028	40
272.282	37
273.536	42
274.79	39
276.044	36
277.297	36
278.551	40
279.804	35
281.057	34
282.31	38
283.564	38
284.816	36
286.068	37
287.32	40
288.572	35
289.823	39
291.074	35
292.325	35
293.576	36
294.827	43
296.077	41
297.328	40
298.578	39
299.828	41
301.077	36
302.325	36
303.575	32
304.824	38
306.073	40
307.321	37
308.57	36
309.818	37
311.066	39
312.314	36
313.562	32
314.808	39
316.055	36
317.302	33
318.549	41
319.796	41
321.042	35
322.288	37
323.533	36
324.779	38
326.024	30
327.27	36
328.515	39
329.759	39
331.004	41
332.248	41
333.493	35
334.736	38
335.98	32
337.223	39
338.466	34
339.709	37
340.952	42
342.195	30
343.437	32
344.68	30
345.922	36
347.163	35
348.405	40
349.647	37
350.887	36
352.128	32
353.37	36
354.609	38
355.85	39
357.089	38
358.33	35
359.57	33
360.809	36
362.049	41
363.287	33
364.526	35
365.764	32
367.003	45
368.241	40
369.479	28
370.718	34
371.955	35
373.193	38
374.429	28
375.667	30
376.903	34
378.139	35
379.376	37
380.611	35
381.848	32
383.083	39
384.319	34
385.554	37
386.79	30
388.024	32
389.258	35
390.493	34
391.727	31
392.962	37
394.195	35
395.428	33
396.663	38
397.895	38
399.128	36
400.361	34
401.593	34
402.825	39
404.058	34
405.29	40
406.521	39
407.752	38
408.985	30
410.215	34
411.446	31
412.678	30
413.908	36
415.138	28
416.367	40
417.597	37
418.828	28
420.057	31
421.286	36
422.514	33
423.743	38
424.973	34
426.201	34
427.429	34
428.657	39
429.884	34
431.112	36
432.34	36
433.567	37
434.794	32
436.02	32
437.247	34
438.473	36
439.699	31
440.925	38
442.15	38
443.376	30
444.601	36
445.826	39
447.051	31
448.275	37
449.5	36
450.724	39
451.948	38
453.172	34
454.396	39
455.619	36
456.842	41
458.065	36
459.288	32
460.511	32
461.733	36
462.956	32
464.178	36
465.4	34
466.621	34
467.843	38
469.064	36
470.285	38
471.505	46
472.726	42
473.946	37
475.166	42
476.387	43
477.606	44
478.825	51
480.044	53
481.264	48
482.483	53
483.702	55
484.921	57
486.138	56
487.356	52
488.574	57
489.792	68
491.009	66
492.226	62
493.444	60
494.661	55
495.877	60
497.094	54
498.31	53
499.525	56
500.741	50
501.958	48
503.172	44
504.388	47
505.603	46
506.817	43
508.032	42
509.247	45
510.46	36
511.675	44
512.888	39
514.102	37
515.316	39
516.528	41
517.742	42
518.954	41
520.167	38
521.378	36
522.591	35
523.802	34
525.015	38
526.226	37
527.438	43
528.648	36
529.86	32
531.07	34
532.281	35
533.491	37
534.702	36
535.911	36
537.121	32
538.33	34
539.54	39
540.749	27
541.957	36
543.167	39
544.375	38
545.584	36
546.791	35
547.999	34
549.207	36
550.414	33
551.621	33
552.829	28
554.035	32
555.241	36
556.449	30
557.655	33
558.86	30
560.066	28
561.272	36
562.477	36
563.682	39
564.888	42
566.093	30
567.297	38
568.501	28
569.705	34
570.91	34
572.114	29
573.317	35
574.52	28
575.723	30
576.927	36
578.13	34
579.332	34
580.535	35
581.737	38
582.938	35
584.14	29
585.343	31
586.544	34
587.745	32
588.946	35
590.147	36
591.347	34
592.548	34
593.748	32
594.948	29
596.147	36
597.347	33
598.546	36
599.745	30
600.944	36
602.143	37
603.342	34
604.54	36
605.738	38
606.937	32
608.134	30
609.332	34
610.529	34
611.727	35
612.924	31
614.121	34
615.317	37
616.513	31
617.709	26
618.905	34
620.101	38
621.297	32
622.492	37
623.688	33
624.883	35
626.077	29
627.271	37
628.466	33
629.66	32
630.855	34
632.047	27
633.241	34
634.435	33
635.629	32
636.82	26
638.014	30
639.207	36
640.399	37
641.59	32
642.783	33
643.975	34
645.166	35
646.357	38
647.549	32
648.741	35
649.93	28
651.122	30
652.311	33
653.502	34
654.692	34
655.881	32
657.071	36
658.261	35
659.45	36
660.639	30
661.827	36
663.016	38
664.204	34
665.393	32
666.581	38
667.769	29
668.957	36
670.143	30
671.331	34
672.518	36
673.705	37
674.891	35
676.078	35
677.264	34
678.451	36
679.636	36
680.821	36
682.007	42
683.192	37
684.378	35
685.562	36
686.747	38
687.931	40
689.115	36
690.3	36
691.483	37
692.666	32
693.851	39
695.034	38
696.216	41
697.4	43
698.582	40
699.764	40
700.948	42
702.129	44
703.311	44
704.493	44
705.674	52
706.855	51
708.036	56
709.218	48
710.399	60
711.579	53
712.759	46
713.939	48
715.12	42
716.299	40
717.478	36
718.657	40
719.836	34
721.015	38
722.195	38
723.373	36
724.552	36
725.729	35
726.907	32
728.085	34
729.262	36
730.44	35
731.617	33
732.795	33
733.972	32
735.148	28
736.324	30
737.501	33
738.677	30
739.852	27
741.028	31
742.203	35
743.379	34
744.554	34
745.729	35
746.903	33
748.078	32
749.252	34
750.426	33
751.599	30
752.772	33
753.946	31
755.119	30
756.293	34
757.466	34
758.639	34
759.811	31
760.984	34
762.155	29
763.327	32
764.499	36
765.67	38
766.842	34
768.013	32
769.183	37
770.354	29
771.525	34
772.696	40
773.865	35
775.035	38
776.205	29
777.375	30
778.544	32
779.713	35
780.882	34
782.052	36
783.219	32
784.388	36
785.557	37
786.724	36
787.892	38
789.06	35
790.227	30
791.395	37
792.562	38
793.728	38
794.895	35
796.061	36
797.228	36
798.395	34
799.56	34
800.726	32
801.891	38
803.057	38
804.221	36
805.387	31
806.551	36
807.716	33
808.879	34
810.044	31
811.208	28
812.372	30
813.535	35
814.699	30
815.862	38
817.025	34
818.188	24
819.351	24
820.513	31
821.675	32
822.837	32
823.999	26
825.161	31
826.322	31
827.483	32
828.645	29
829.805	33
830.966	34
832.127	32
833.287	36
834.447	30
835.607	34
836.767	37
837.926	32
839.085	28
840.245	34
841.404	31
842.562	36
843.72	28
844.88	33
846.038	36
847.195	30
848.353	28
849.512	34
850.669	28
851.826	35
852.983	30
854.139	34
855.296	27
856.453	36
857.609	35
858.765	29
859.921	35
861.077	38
862.232	34
863.387	38
864.542	26
865.697	35
866.852	26
868.008	32
869.162	34
870.316	36
871.47	33
872.624	37
873.778	29
874.931	30
876.084	33
877.237	26
878.39	33
879.543	33
880.695	38
881.846	38
882.999	28
884.151	31
885.302	34
886.454	34
887.606	30
888.757	32
889.908	28
891.059	26
892.21	33
893.359	33
894.509	28
895.659	31
896.81	35
897.959	34
899.109	36
900.257	32
901.407	24
902.556	33
903.705	31
904.854	28
906.001	30
907.149	28
908.298	24
909.446	31
910.592	29
911.74	28
912.888	28
914.034	22
915.181	28
916.328	30
917.473	29
918.62	26
919.766	26
920.911	28
922.058	28
923.204	29
924.348	28
925.494	34
926.638	32
927.783	28
928.928	31
930.072	34
931.216	27
932.36	26
933.504	22
934.647	32
935.791	30
936.933	35
938.077	31
939.219	32
940.363	34
941.504	32
942.647	30
943.789	36
944.932	28
946.073	32
947.215	32
948.356	34
949.498	28
950.638	32
951.778	34
952.92	34
954.06	33
955.199	32
956.34	31
957.479	30
958.62	29
959.759	32
960.898	34
962.038	34
963.176	29
964.315	30
965.453	30
966.592	24
967.73	32
968.867	30
970.006	27
971.144	28
972.281	29
973.418	32
974.554	31
975.692	33
976.829	32
977.965	32
979.101	30
980.237	31
981.374	26
982.509	37
983.645	30
984.78	30
985.915	34
987.05	29
988.184	31
989.319	33
990.453	34
991.589	28
992.722	27
993.856	28
994.99	35
996.123	29
997.257	30
998.39	38
999.523	29
1000.66	29
1001.79	27
1002.92	35
1004.05	29
1005.18	28
1006.32	24
1007.45	28
1008.58	34
1009.71	32
1010.84	29
1011.97	26
1013.1	31
1014.23	28
1015.36	31
1016.49	30
1017.62	32
1018.75	34
1019.88	32
1021.01	29
1022.14	29
1023.27	24
1024.4	31
1025.53	33
1026.66	30
1027.79	32
1028.91	30
1030.04	30
1031.17	32
1032.3	33
1033.42	28
1034.55	26
1035.68	26
1036.81	26
1037.93	32
1039.06	27
1040.18	31
1041.31	26
1042.44	31
1043.56	33
1044.69	34
1045.81	32
1046.94	32
1048.06	29
1049.19	26
1050.31	32
1051.44	35
1052.56	30
1053.69	30
1054.81	33
1055.93	31
1057.06	31
1058.18	34
1059.3	32
1060.43	28
1061.55	29
1062.67	26
1063.79	31
1064.92	30
1066.04	27
1067.16	32
1068.28	28
1069.4	32
1070.52	25
1071.65	33
1072.77	38
1073.89	32
1075.01	28
1076.13	28
1077.25	30
1078.37	31
1079.49	31
1080.61	30
1081.73	28
1082.85	34
1083.97	31
1085.09	33
1086.2	29
1087.32	30
1088.44	31
1089.56	30
1090.68	32
1091.8	31
1092.91	28
1094.03	26
1095.15	26
1096.26	32
1097.38	27
1098.5	32
1099.61	25
1100.73	28
1101.85	31
1102.96	26
1104.08	21
1105.19	33
1106.31	28
1107.43	32
1108.54	28
1109.66	30
1110.77	36
1111.88	27
1113	24
1114.11	30
1115.23	29
1116.34	30
1117.46	29
1118.57	29
1119.68	31
1120.8	33
1121.91	30
1123.02	32
1124.13	30
1125.25	30
1126.36	30
1127.47	28
1128.58	32
1129.69	30
1130.8	30
1131.92	33
1133.03	28
1134.14	31
1135.25	34
1136.36	33
1137.47	28
1138.58	31
1139.69	29
1140.8	29
1141.91	30
1143.02	33
1144.13	29
1145.24	28
1146.35	30
1147.46	26
1148.56	31
1149.67	30
1150.78	28
1151.89	30
1153	30
1154.1	28
1155.21	32
1156.32	32
1157.43	31
1158.53	30
1159.64	27
1160.75	24
1161.85	31
1162.96	28
1164.07	28
1165.17	26
1166.28	31
1167.38	32
1168.49	34
1169.59	28
1170.7	30
1171.8	27
1172.91	26
1174.01	22
1175.12	29
1176.22	30
1177.32	24
1178.43	32
1179.53	34
1180.64	27
1181.74	26
1182.84	28
1183.94	28
1185.05	32
1186.15	36
1187.25	30
1188.35	32
1189.46	30
1190.56	28
1191.66	26
1192.76	28
1193.86	24
1194.96	30
1196.06	31.9853
1197.16	27.0294
1198.26	30.9784
1199.37	32.9314
1200.47	26.0507
1201.57	24.0588
1202.67	25.931
1203.77	28.9082
1204.86	22.4401
1205.96	29.4412
1207.06	32.0735
1208.16	27.549
1209.26	30.1422
1210.36	25.0692
1211.46	25.4988
1212.56	30
1213.65	28.8428
1214.75	28.1506
1215.85	24.8071
1216.95	27.8926
1218.04	29.8943
1219.14	29.7036
1220.24	30.0153
1221.33	29.9539
1222.43	26.2402
1223.53	26.1374
1224.62	26.2313
1225.72	28.7304
1226.82	29.1976
1227.91	28.9678
1229.01	27.701
1230.1	24.7962
1231.2	26.5487
1232.29	27.0147
1233.39	26.4864
1234.48	29.1839
1235.58	29.8634
1236.67	26
1237.77	25.34
1238.86	27.7368
1239.95	25.1091
1241.05	27.2352
1242.14	31.7761
1243.23	29.9063
1244.33	25.7739
1245.42	26.046
1246.51	25.8411
1247.61	29.3283
1248.7	26.839
1249.79	28.5735
1250.88	29.0126
1251.97	28.1778
1253.07	28.4635
1254.16	31.737
1255.25	29.6312
1256.34	30.0433
1257.43	25.2286
1258.52	28.9755
1259.61	27.7986
1260.7	28.8345
1261.79	30.052
1262.88	32.2338
1263.97	27.1065
1265.06	30.5961
1266.15	29.7477
1267.24	25.7892
1268.33	27.4188
1269.42	29.4989
1270.51	29.8231
1271.6	27.3547
1272.68	26.1824
1273.77	27.6649
1274.86	24.4466
1275.95	28.7271
1277.04	30.6502
1278.12	27.3662
1279.21	25.6979
1280.3	25.6223
1281.39	24.5644
1282.47	29.1209
1283.56	27.6991
1284.65	26.9451
1285.73	26.9481
1286.82	28.818
1287.91	30.417
1288.99	28.455
1290.08	28.8923
1291.16	27.5211
1292.25	29.373
1293.33	26.2451
1294.42	26.5584
1295.5	26.1882
1296.59	29.5551
1297.67	26.5493
1298.76	27.4964
1299.84	26.1177
1300.92	24.7113
1302.01	28.0052
1303.09	28.8365
1304.17	26.2095
1305.26	28.7707
1306.34	25.9902
1307.34	26
1308.43	26
1309.52	28
1310.61	28
1311.7	26
1312.78	32
1313.87	29
1314.96	24
1316.04	27
1317.13	25
1318.22	26
1319.3	27
1320.39	27
1321.48	24
1322.56	28
1323.65	31
1324.73	31
1325.82	27
1326.9	24
1327.99	22
1329.07	30
1330.16	32
1331.24	29
1332.33	28
1333.41	28
1334.5	27
1335.58	30
1336.66	26
1337.75	24
1338.83	28
1339.91	26
1341	29
1342.08	25
1343.16	25
1344.24	26
1345.33	32
1346.41	30
1347.49	28
1348.57	29
1349.65	26
1350.74	29
1351.82	31
1352.9	34
1353.98	29
1355.06	29
1356.14	26
1357.22	28
1358.3	28
1359.38	33
1360.46	24
1361.54	30
1362.62	30
1363.7	26
1364.78	25
1365.86	28
1366.94	28
1368.02	26
1369.09	25
1370.17	28
1371.25	32
1372.33	30
1373.41	25
1374.48	30
1375.56	26
1376.64	24
1377.72	28
1378.79	24
1379.87	29
1380.95	26
1382.02	28
1383.1	30
1384.17	32
1385.25	29
1386.33	26
1387.4	22
1388.48	26
1389.55	26
1390.63	26
1391.7	30
1392.78	30
1393.85	32
1394.93	24
1396	28
1397.07	25
1398.15	32
1399.22	30
1400.3	28
1401.37	31
1402.44	27
1403.52	32
1404.59	33
1405.66	34
1406.73	33
1407.81	30
1408.88	31
1409.95	32
1411.02	24
1412.09	33
1413.17	34
1414.24	29
1415.31	30
1416.38	32
1417.45	29
1418.52	27
1419.59	30
1420.66	34
1421.73	26
1422.8	28
1423.87	33
1424.94	30
1426.01	30
1427.08	30
1428.15	28
1429.22	30
1430.29	26
1431.35	28
1432.42	26
1433.49	29
1434.56	32
1435.63	27
1436.69	34
1437.76	29
1438.83	31
1439.9	32
1440.96	35
1442.03	30
1443.1	24
1444.17	28
1445.23	23
1446.3	28
1447.36	26
1448.43	29
1449.49	27
1450.56	29
1451.63	26
1452.69	26
1453.76	31
1454.82	28
1455.89	26
1456.95	29
1458.01	24
1459.08	28
1460.14	26
1461.21	31
1462.27	32
1463.34	24
1464.4	29
1465.46	28
1466.52	27
1467.59	27
1468.65	31
1469.71	31
1470.77	28
1471.84	30
1472.9	24
1473.96	27
1475.02	28
1476.08	30
1477.15	24
1478.21	28
1479.27	27
1480.33	27
1481.39	27
1482.45	27
1483.51	29
1484.57	28
1485.63	30
1486.69	32
1487.75	30
1488.81	25
1489.87	30
1490.93	30
1491.99	31
1493.05	28
1494.1	28
1495.16	30
1496.22	32
1497.28	26
1498.34	30
1499.4	31
1500.45	26
1501.51	26
1502.57	31
1503.63	30
1504.68	27
1505.74	29
1506.8	28
1507.85	27
1508.91	30
1509.97	30
1511.02	33
1512.08	26
1513.13	28
1514.19	30
1515.24	31
1516.3	32
1517.35	28
1518.41	32
1519.46	22
1520.52	26
1521.57	28
1522.63	29
1523.68	23
1524.73	22
1525.79	29
1526.84	29
1527.9	24
1528.95	26
1530	18
1531.05	31
1532.11	20
1533.16	29
1534.21	32
1535.26	28
1536.32	22
1537.37	27
1538.42	30
1539.47	29
1540.52	24
1541.57	29
1542.63	30
1543.68	29
1544.73	28
1545.78	31
1546.83	26
1547.88	30
1548.93	24
1549.98	26
1551.03	27
1552.08	30
1553.13	29
1554.18	30
1555.23	28
1556.27	32
1557.32	26
1558.37	32
1559.42	32
1560.47	26
1561.52	28
1562.56	22
1563.61	28
1564.66	28
1565.71	28
1566.75	28
1567.8	30
1568.85	26
1569.9	32
1570.94	26
1571.99	28
1573.03	27
1574.08	28
1575.13	29
1576.17	28
1577.22	34
1578.26	28
1579.31	26
1580.35	31
1581.4	33
1582.44	34
1583.49	27
1584.53	30
1585.58	30
1586.62	28
1587.66	30
1588.71	22
1589.75	26
1590.8	29
1591.84	26
1592.88	28
1593.92	29
1594.97	30
1596.01	26
1597.05	30
1598.1	22
1599.14	24
1600.18	28
1601.22	32
1602.26	28
1603.3	28
1604.35	30
1605.39	27
1606.43	26
1607.47	26
1608.51	30
1609.55	29
1610.59	28
1611.63	32
1612.67	27
1613.71	28
1614.75	27
1615.79	29
1616.83	31
1617.87	30
1618.91	31
1619.95	28
1620.99	29
1622.02	27
1623.06	28
1624.1	30
1625.14	26
1626.18	30
1627.21	28
1628.25	30
1629.29	26
1630.33	30
1631.36	27
1632.4	28
1633.44	28
1634.48	26
1635.51	30
1636.55	27
1637.58	30
1638.62	27
1639.66	20
1640.69	32
1641.73	30
1642.76	30
1643.8	28
1644.83	31
1645.87	30
1646.9	26
1647.94	34
1648.97	24
1650	31
1651.04	30
1652.07	27
1653.11	27
1654.14	30
1655.17	23
1656.21	26
1657.24	29
1658.27	27
1659.31	28
1660.34	31
1661.37	26
1662.4	30
1663.43	28
1664.47	30
1665.5	26
1666.53	30
1667.56	26
1668.59	29
1669.62	26
1670.66	31
1671.69	27
1672.72	26
1673.75	29
1674.78	28
1675.81	30
1676.84	29
1677.87	30
1678.9	20
1679.93	30
1680.96	26
1681.98	28
1683.01	28
1684.04	25
1685.07	22
1686.1	29
1687.13	25
1688.16	28
1689.18	27
1690.21	27
1691.24	28
1692.27	28
1693.3	28
1694.32	31
1695.35	26
1696.38	29
1697.4	20
1698.43	27
1699.46	22
1700.48	31
1701.51	26
1702.54	29
1703.56	26
1704.59	27
1705.61	27
1706.64	25
1707.66	28
1708.69	28
1709.71	27
1710.74	32
1711.76	30
1712.79	26
1713.81	29
1714.83	30
1715.86	31
1716.88	25
1717.91	29
1718.93	33
1719.95	30
1720.98	27
1722	31
1723.02	29
1724.04	26
1725.07	32
1726.09	28
1727.11	28
1728.13	24
1729.15	25
1730.18	30
1731.2	26
1732.22	34
1733.24	30
1734.26	31
1735.28	27
1736.3	33
1737.32	32
1738.34	26
1739.36	28
1740.38	26
1741.4	30
1742.42	28
1743.44	27
1744.46	31
1745.48	30
1746.5	30
1747.52	28
1748.54	28
1749.56	28
1750.58	20
1751.6	26
1752.61	26
1753.63	30
1754.65	28
1755.67	27
1756.68	31
1757.7	25
1758.72	28
1759.74	31
1760.75	30
1761.77	30
1762.79	28
1763.8	24
1764.82	28
1765.83	26
1766.85	26
1767.87	29
1768.88	29
1769.9	28
1770.91	29
1771.93	30
1772.94	24
1773.96	32
1774.97	24
1775.99	24
1777	22
1778.02	28
1779.03	22
1780.04	28
1781.06	28
1782.07	32
1783.09	26
1784.1	16
1785.11	28
1786.13	20
1787.14	28
1788.15	26
1789.16	27
1790.18	24
1791.19	28
1792.2	27
1793.21	28
1794.22	26
1795.23	28
1796.25	28
1797.26	26
1798.27	26
1799.28	30
1800.29	24
1801.3	27
1802.31	30
1803.32	32
1804.33	24
1805.34	28
1806.35	24
1807.36	28
1808.37	27
1809.38	23
1810.39	30
1811.4	29
1812.41	25
1813.42	32
1814.42	30
1815.43	26
1816.44	28
1817.45	26
1818.46	28
1819.47	22
1820.47	28
1821.48	31
1822.49	20
1823.49	30
1824.5	30
1825.51	32
1826.52	31
1827.52	30
1828.53	30
1829.53	26
1830.54	28
1831.55	30
1832.55	29
1833.56	28
1834.56	28
1835.57	30
1836.57	28
1837.58	24
1838.58	24
1839.59	28
1840.59	26
1841.6	26
1842.6	24
1843.61	31
1844.61	29
1845.61	26
1846.62	28
1847.62	28
1848.62	26
1849.63	26
1850.63	28
1851.63	29
1852.64	24
1853.64	28
1854.64	30
1855.64	28
1856.64	30
1857.65	32
1858.65	30
1859.65	30
1860.65	28
1861.65	31
1862.65	32
1863.65	27
1864.66	21
1865.66	27
1866.66	28
1867.66	28
1868.66	32
1869.66	27
1870.66	24
1871.66	28
1872.66	31
1873.66	27
1874.66	29
1875.65	28
1876.65	28
1877.65	27
1878.65	29
1879.65	26
1880.65	28
1881.65	27
1882.64	28
1883.64	27
1884.64	28
1885.64	28
1886.63	27
1887.63	26
1888.63	29
1889.63	24
1890.62	30
1891.62	27
1892.62	32
1893.61	26
1894.61	27
1895.6	28
1896.6	28
1897.6	26
1898.59	29
1899.59	27
1900.58	26
1901.58	24
1902.57	28
1903.57	26
1904.56	25
1905.56	26
1906.55	27
1907.54	29
1908.54	30
1909.53	27
1910.53	18
1911.52	30
1912.51	28
1913.51	26
1914.5	26
1915.49	29
1916.49	18
1917.48	26
1918.47	28
1919.46	27
1920.46	28
1921.45	24
1922.44	27
1923.43	24
1924.42	22
1925.41	29
1926.41	20
1927.4	26
1928.39	32
1929.38	25
1930.37	29
1931.36	30
1932.35	26
1933.34	29
1934.33	26
1935.32	27
1936.31	29
1937.3	28
1938.29	30
1939.28	26
1940.27	25
1941.26	25
1942.24	29
1943.23	27
1944.22	34
1945.21	29
1946.2	26
1947.19	25
1948.17	25
1949.16	22
1950.15	26
1951.14	29
1952.12	27
1953.11	26
1954.1	25
1955.09	27
1956.07	31
1957.06	30
1958.05	28
1959.03	26
1960.02	32
1961	30
1961.99	30
1962.98	28
1963.96	29
1964.95	26
1965.93	25
1966.92	22
1967.9	26
1968.89	22
1969.87	22
1970.85	30
1971.84	23
1972.82	28
1973.81	26
1974.79	29
1975.78	24
1976.76	30
1977.74	28
1978.73	28
1979.71	32
1980.69	26
1981.67	29
1982.66	31
1983.64	28
1984.62	30
1985.6	28
1986.59	24
1987.57	30
1988.55	24
1989.53	26
1990.51	24
1991.49	26
1992.47	26
1993.45	28
1994.44	29
1995.42	30
1996.4	30
1997.38	27
1998.36	27
1999.34	24
2000.32	30
2001.3	26
2002.28	22
2003.26	26
2004.24	28
2005.22	26
2006.19	30
2007.17	29
2008.15	24
2009.13	29
2010.11	26
2011.09	27
2012.06	26
2013.04	28
2014.02	26
2015	28
2015.98	28
2016.95	28
2017.93	24
2018.91	30
2019.88	26
2020.86	26
2021.84	28
2022.81	24
2023.79	29
2024.77	26
2025.74	27
2026.72	21
2027.69	26
2028.67	24
2029.65	26
2030.62	31
2031.6	24
2032.57	22
2033.55	31
2034.52	26
2035.5	23
2036.47	27
2037.44	24
2038.42	28
2039.39	25
2040.36	25
2041.34	24
2042.31	24
2043.29	27
2044.26	27
2045.23	26
2046.2	26
2047.18	28
2048.15	24
2049.12	24
2050.09	27
2051.07	24
2052.04	25
2053.01	28
2053.98	27
2054.95	24
2055.93	24
2056.9	29
2057.87	27
2058.84	27
2059.81	29
2060.78	24
2061.75	27
2062.72	32
2063.69	24
2064.66	26
2065.63	25
2066.6	28
2067.57	23
2068.54	28
2069.51	25
2070.48	27
2071.45	29
2072.42	24
2073.38	26
2074.35	30
2075.32	29
2076.29	28
2077.26	24
2078.23	28
2079.19	26
2080.16	26
2081.13	27
2082.1	24
2083.06	27
2084.03	28
2085	26
2085.96	32
2086.93	31
2087.9	28
2088.86	22
2089.83	27
2090.8	25
2091.76	24
2092.73	26
2093.69	26
2094.66	25
2095.62	24
2096.59	24
2097.55	24
2098.52	29
2099.48	26
2100.45	24
2101.41	28
2102.38	32
2103.34	28
2104.31	29
2105.27	24
2106.23	29
2107.2	26
2108.16	25
2109.12	31
2110.09	29
2111.05	26
2112.01	26
2112.98	29
2113.94	25
2114.9	25
2115.86	26
2116.82	24
2117.79	25
2118.75	24
2119.71	28
2120.67	28
2121.63	28
2122.59	29
2123.55	26
2124.52	24
2125.48	30
2126.44	26
2127.4	28
2128.36	29
2129.32	27
2130.28	22
2131.24	26
2132.2	27
2133.16	25
2134.12	30
2135.08	27
2136.04	30
2136.99	22
2137.95	28
2138.91	27
2139.87	33
2140.83	26
2141.79	28
2142.75	22
2143.7	30
2144.66	22
2145.62	24.9981
2146.58	27.8984
2147.53	29.8185
2148.49	29.9657
2149.45	27.0713
2150.41	24.9461
2151.36	22.1275
2152.32	30.4897
2153.27	24.0787
2154.23	22.2008
2155.19	21.6129
2156.14	25.1127
2157.1	24.2541
2158.06	23.6577
2159.01	24.4154
2159.97	22.3169
2160.92	28
2161.88	27.9909
2162.83	27.0921
2163.79	23.6176
2164.74	22.8001
2165.7	28.9481
2166.65	24.0031
2167.61	20.6958
2168.56	23.5256
2169.51	25.2426
2170.47	24.242
2171.42	24.2696
2172.38	29.4305
2173.33	27.2216
2174.28	26.5166
2175.24	25.3461
2176.19	23.9559
2177.14	26.6716
2178.09	23.979
2179.05	26.0884
2180	27.7595
2180.95	26.6993
2181.9	28.2689
2182.86	23.4982
2183.81	26.188
2184.76	24.1343
2185.71	24.7367
2186.66	26
2187.61	24.8725
2188.57	24.8922
2189.52	21.1599
2190.47	23.3334
2191.42	26.7907
2192.37	27.7206
2193.32	29.1955
2194.27	27.1637
2195.22	25.6006
2196.17	25.4016
2197.12	26.2845
2198.07	25.1101
2199.02	26.6935
2199.97	24.3976
2200.92	26.0742
2201.87	28.632
2202.82	27.0892
2203.76	24.6422
2204.71	26.119
2205.66	24.7618
2206.61	23.4091
2207.56	27.8461
2208.51	24.6078
2209.45	24.6471
2210.4	27.6662
2211.35	24.444
2212.3	26.5349
2213.24	27.2584
2214.19	26.481
2215.14	26.5588
2216.09	24.4085
2217.03	25.5588
2217.98	25.0651
2218.93	27.0154
2219.87	25.0019
2220.82	25.7611
2221.77	28.265
2222.71	26.5564
2223.66	25.0692
2224.6	28.3003
2225.55	26.5108
2226.49	26.6361
2227.44	27.5082
2228.38	29.2751
2229.33	26.1068
2230.27	26.499
2231.22	25.1767
2232.16	26.4692
2233.11	26.8728
2234.05	24.7914
2235	27.4208
2235.94	27.773
2236.88	26.1231
2237.83	25.7941
2238.77	27.5859
2239.71	25.5506
2240.66	25.9095
2241.6	26.8371
2242	26
2242.95	18
2243.9	28
2244.84	19
2245.79	22
2246.74	32
2247.69	23
2248.63	26
2249.58	22
2250.53	24
2251.47	22
2252.42	25
2253.37	24
2254.31	30
2255.26	28
2256.2	28
2257.15	24
2258.1	24
2259.04	29
2259.99	30
2260.93	29
2261.88	24
2262.82	22
2263.77	26
2264.71	20
2265.65	29
2266.6	28
2267.54	27
2268.49	25
2269.43	26
2270.38	28
2271.32	30
2272.26	23
2273.21	26
2274.15	22
2275.09	24
2276.04	22
2276.98	27
2277.92	20
2278.86	26
2279.81	31
2280.75	28
2281.69	27
2282.63	29
2283.57	31
2284.52	28
2285.46	24
2286.4	28
2287.34	28
2288.28	23
2289.22	26
2290.16	26
2291.1	27
2292.04	20
2292.98	32
2293.93	25
2294.86	24
2295.8	31
2296.74	25
2297.69	28
2298.62	27
2299.56	27
2300.5	24
2301.44	28
2302.38	23
2303.32	23
2304.26	20
2305.2	22
2306.14	28
2307.07	23
2308.01	26
2308.95	23
2309.89	24
2310.83	28
2311.76	26
2312.7	28
2313.64	26
2314.58	25
2315.51	26
2316.45	22
2317.39	29
2318.32	25
2319.26	28
2320.2	24
2321.13	25
2322.07	22
2323	27
2323.94	26
2324.88	26
2325.81	30
2326.75	28
2327.68	28
2328.62	24
2329.55	24
2330.49	28
2331.42	20
2332.36	26
2333.29	21
2334.22	27
2335.16	28
2336.09	24
2337.03	25
2337.96	28
2338.89	28
2339.83	28
2340.76	24
2341.69	24
2342.63	24
2343.56	23
2344.49	28
2345.43	30
2346.36	28
2347.29	22
2348.22	28
2349.15	23
2350.09	27
2351.02	23
2351.95	30
2352.88	28
2353.81	22
2354.74	24
2355.67	26
2356.61	23
2357.54	22
2358.47	24
2359.4	24
2360.33	28
2361.26	27
2362.19	26
2363.12	24
2364.05	27
2364.98	28
2365.91	28
2366.84	32
2367.77	29
2368.7	24
2369.62	28
2370.55	24
2371.48	22
2372.41	27
2373.34	26
2374.27	28
2375.2	31
2376.12	26
2377.05	30
2377.98	26
2378.91	28
2379.83	26
2380.76	25
2381.69	28
2382.62	30
2383.54	23
2384.47	24
2385.4	28
2386.32	26
2387.25	30
2388.18	26
2389.1	27
2390.03	24
2390.95	26
2391.88	22
2392.81	28
2393.73	29
2394.66	27
2395.58	27
2396.51	30
2397.43	26
2398.36	24
2399.28	24
2400.2	24
2401.13	26
2402.05	25
2402.98	26
2403.9	26
2404.83	28
2405.75	26
2406.67	32
2407.6	27
2408.52	32
2409.44	24
2410.37	28
2411.29	22
2412.21	22
2413.13	24
2414.06	28
2414.98	27
2415.9	24
2416.82	26
2417.74	25
2418.67	22
2419.59	30
2420.51	26
2421.43	26
2422.35	25
2423.27	28
2424.19	28
2425.11	27
2426.03	24
2426.96	25
2427.88	25
2428.8	26
2429.72	27
2430.64	27
2431.56	28
2432.48	26
2433.39	28
2434.31	31
2435.23	30
2436.15	27
2437.07	28
2437.99	27
2438.91	27
2439.83	29
2440.75	24
2441.67	27
2442.58	27
2443.5	26
2444.42	28
2445.34	30
2446.26	29
2447.17	26
2448.09	22
2449.01	25
2449.92	24
2450.84	24
2451.76	26
2452.68	28
2453.59	34
2454.51	28
2455.42	26
2456.34	26
2457.26	26
2458.17	28
2459.09	26
2460	33
2460.92	20
2461.83	29
2462.75	28
2463.66	20
2464.58	22
2465.49	30
2466.41	24
2467.32	26
2468.24	23
2469.15	22
2470.07	26
2470.98	28
2471.89	31
2472.81	25
2473.72	27
2474.64	30
2475.55	25
2476.46	27
2477.37	27
2478.29	22
2479.2	31
2480.11	26
2481.03	30
2481.94	30
2482.85	28
2483.76	30
2484.67	28
2485.59	30
2486.5	27
2487.41	24
2488.32	29
2489.23	28
2490.14	25
2491.05	23
2491.97	24
2492.88	23
2493.79	24
2494.7	24
2495.61	28
2496.52	29
2497.43	22
2498.34	27
2499.25	28
2500.16	28
2501.07	28
2501.98	24
2502.89	24
2503.79	28
2504.7	28
2505.61	23
2506.52	29
2507.43	24
2508.34	26
2509.25	24
2510.16	27
2511.06	26
2511.97	26
2512.88	27
2513.79	24
2514.69	27
2515.6	25
2516.51	18
2517.42	30
2518.32	27
2519.23	29
2520.14	28
2521.04	30
2521.95	28
2522.86	25
2523.76	24
2524.67	22
2525.57	26
2526.48	28
2527.39	26
2528.29	28
2529.2	16
2530.1	31
2531.01	32
2531.91	31
2532.82	26
2533.72	27
2534.63	26
2535.53	27
2536.44	28
2537.34	26
2538.24	26
2539.15	28
2540.05	26
2540.96	29
2541.86	22
2542.76	24
2543.67	31
2544.57	29
2545.47	31
2546.37	27
2547.28	27
2548.18	24
2549.08	28
2549.99	35
2550.89	22
2551.79	26
2552.69	20
2553.59	26
2554.49	22
2555.4	24
2556.3	22
2557.2	22
2558.1	26
2559	30
2559.9	24
2560.8	30
2561.7	28
2562.6	27
2563.5	27
2564.4	26
2565.3	22
2566.2	24
2567.1	28
2568	26
2568.9	26
2569.8	28
2570.7	26
2571.6	27
2572.5	30
2573.4	25
2574.3	33
2575.2	27
2576.1	28
2576.99	30
2577.89	28
2578.79	28
2579.69	26
2580.59	28
2581.48	31
2582.38	22
2583.28	24
2584.18	24
2585.07	30
2585.97	24
2586.87	28
2587.76	26
2588.66	32
2589.56	29
2590.45	27
2591.35	30
2592.25	29
2593.14	30
2594.04	26
2594.93	27
2595.83	20
2596.73	26
2597.62	24
2598.52	29
2599.41	24
2600.31	24
2601.2	22
2602.1	30
2602.99	24
2603.88	33
2604.78	29
2605.67	29
2606.57	26
2607.46	24
2608.35	26
2609.25	25
2610.14	28
2611.03	26
2611.93	30
2612.82	29
2613.71	28
2614.61	27
2615.5	27
2616.39	26
2617.29	26
2618.18	27
2619.07	24
2619.96	28
2620.85	26
2621.75	26
2622.64	29
2623.53	24
2624.42	26
2625.31	29
2626.2	22
2627.09	29
2627.98	31
2628.88	32
2629.77	29
2630.66	29
2631.55	26
2632.44	32
2633.33	28
2634.22	26
2635.11	28
2636	26
2636.89	25
2637.78	30
2638.66	26
2639.55	31
2640.44	26
2641.33	27
2642.22	28
2643.11	29
2644	21
2644.89	26
2645.78	28
2646.66	27
2647.55	22
2648.44	26
2649.33	25
2650.21	26
2651.1	26
2651.99	28
2652.88	28
2653.76	24
2654.65	30
2655.54	29
2656.42	27
2657.31	26
2658.2	30
2659.08	25
2659.97	31
2660.86	27
2661.74	28
2662.63	26
2663.51	29
2664.4	24
2665.29	27
2666.17	26
2667.06	32
2667.94	28
2668.83	30
2669.71	27
2670.6	27
2671.48	28
2672.36	24
2673.25	28
2674.13	28
2675.02	28
2675.9	28
2676.78	30
2677.67	24
2678.55	30
2679.43	28
2680.32	24
2681.2	20
2682.08	29
2682.97	27
2683.85	29
2684.73	28
2685.61	30
2686.5	27
2687.38	29
2688.26	22
2689.14	28
2690.03	22
2690.91	28
2691.79	26
2692.67	26
2693.55	24
2694.43	25
2695.31	24
2696.19	28
2697.08	18
2697.96	28
2698.84	26
2699.72	22
2700.6	25
2701.48	28
2702.36	24
2703.24	25
2704.12	32
2705	20
2705.88	27
2706.76	30
2707.64	28
2708.51	24
2709.39	28
2710.27	25
2711.15	28
2712.03	26
2712.91	27
2713.79	27
2714.67	28
2715.54	26
2716.42	24
2717.3	26
2718.18	28
2719.05	25
2719.93	25
2720.81	24
2721.69	28
2722.56	23
2723.44	28
2724.32	28
2725.19	28
2726.07	28
2726.95	26
2727.82	26
2728.7	29
2729.58	26
2730.45	30
2731.33	32
2732.2	30
2733.08	27
2733.95	24
2734.83	28
2735.7	32
2736.58	26
2737.45	28
2738.33	29
2739.2	29
2740.08	24
2740.95	30
2741.83	26
2742.7	30
2743.58	26
2744.45	24
2745.32	26
2746.2	24
2747.07	27
2747.94	24
2748.82	31
2749.69	27
2750.56	30
2751.44	29
2752.31	24
2753.18	26
2754.05	21
2754.93	26
2755.8	26
2756.67	28
2757.54	31
2758.42	28
2759.29	26
2760.16	30
2761.03	28
2761.9	26
2762.77	27
2763.64	22
2764.51	26
2765.38	27
2766.26	28
2767.13	29
2768	31
2768.87	29
2769.74	24
2770.61	28
2771.48	31
2772.35	26
2773.22	25
2774.09	23
2774.96	30
2775.83	26
2776.7	26
2777.56	32
2778.43	30
2779.3	26
2780.17	24
2781.04	21
2781.91	28
2782.78	31
2783.64	25
2784.51	29
2785.38	31
2786.25	27
2787.12	33
2787.98	29
2788.85	26
2789.72	24
2790.59	32
2791.45	31
2792.32	24
2793.19	29
2794.05	29
2794.92	29
2795.79	24
2796.65	24
2797.52	28
2798.38	28
2799.25	29
2800.12	32
2800.98	28
2801.85	26
2802.71	29
2803.58	29
2804.44	29
2805.31	29
2806.17	23
2807.04	28
2807.9	31
2808.77	29
2809.63	30
2810.5	30
2811.36	31
2812.22	28
2813.09	30
2813.95	30
2814.82	31
2815.68	24
2816.54	30
2817.41	28
2818.27	26
2819.13	28
2820	27
2820.86	26
2821.72	33
2822.58	26
2823.45	31
2824.31	27
2825.17	29
2826.03	33
2826.9	31
2827.76	32
2828.62	26
2829.48	30
2830.34	29
2831.2	25
2832.06	22
2832.92	28
2833.79	30
2834.65	28
2835.51	30
2836.37	30
2837.23	24
2838.09	22
2838.95	33
2839.81	30
2840.67	30
2841.53	33
2842.39	29
2843.25	24
2844.11	30
2844.97	30
2845.83	30
2846.68	31
2847.54	30
2848.4	31
2849.26	27
2850.12	28
2850.98	28
2851.84	29
2852.69	24
2853.55	26
2854.41	26
2855.27	25
2856.13	31
2856.98	27
2857.84	32
2858.7	28
2859.56	25
2860.41	28
2861.27	33
2862.13	33
2862.98	26
2863.84	29
2864.7	29
2865.55	29
2866.41	26
2867.27	30
2868.12	30
2868.98	31
2869.83	26
2870.69	30
2871.54	28
2872.4	30
2873.25	26
2874.11	36
2874.96	32
2875.82	30
2876.68	33
2877.53	36
2878.38	30
2879.24	37
2880.09	36
2880.95	32
2881.8	30
2882.65	32
2883.51	32
2884.36	34
2885.22	35
2886.07	37
2886.92	32
2887.77	34
2888.63	34
2889.48	41
2890.33	30
2891.19	37
2892.04	36
2892.89	43
2893.74	46
2894.6	43
2895.45	43
2896.3	46
2897.15	51
2898	48
2898.85	52
2899.71	46
2900.56	55
2901.41	54
2902.26	56
2903.11	63
2903.96	62
2904.81	64
2905.66	65
2906.51	61
2907.36	65
2908.21	64
2909.06	64
2909.91	62
2910.76	58
2911.61	56
2912.46	48
2913.31	51
2914.16	53
2915.01	44
2915.86	42
2916.71	42
2917.56	44
2918.41	42
2919.26	41
2920.1	38
2920.95	36
2921.8	39
2922.65	38
2923.5	32
2924.34	34
2925.19	32
2926.04	38
2926.89	32
2927.74	34
2928.58	32
2929.43	30
2930.28	26
2931.12	30
2931.97	32
2932.82	30
2933.66	32
2934.51	22
2935.36	28
2936.2	29
2937.05	28
2937.89	28
2938.74	29
2939.59	24
2940.43	30
2941.28	33
2942.12	26
2942.97	28
2943.81	38
2944.66	31
2945.5	31
2946.35	28
2947.19	32
2948.04	32
2948.88	32
2949.72	28
2950.57	30
2951.41	37
2952.26	35
2953.1	36
2953.94	38
2954.79	28
2955.63	30
2956.47	35
2957.32	45
2958.16	38
2959	33
2959.85	40
2960.69	36
2961.53	36
2962.37	40
2963.22	46
2964.06	38
2964.9	35
2965.74	46
2966.58	38
2967.42	46
2968.27	46
2969.11	38
2969.95	34
2970.79	42
2971.63	39
2972.47	36
2973.31	35
2974.15	39
2974.99	30
2975.83	36
2976.68	33
2977.52	38
2978.36	31
2979.2	35
2980.04	28
2980.88	32
2981.71	32
2982.55	30
2983.39	25
2984.23	32
2985.07	32
2985.91	29
2986.75	29
2987.59	24
2988.43	32
2989.27	31
2990.1	28
2990.94	30
2991.78	28
2992.62	26
2993.46	28
2994.3	31
2995.13	28
2995.97	31
2996.81	30
2997.64	30
2998.48	34
2999.32	31
