#Acq. time (s)=	3
#Accumulations=	3
#Range (cm-¹)=	100...3000
#Windows=	3
#Autofocus=	Off
#AutoExposure=	Off
#Spike filter=	Multiple accum.
#Delay time (s)=	0
#Binning=	1
#Readout mode=	Signal
#DeNoise=	Off
#ICS correction=	Off
#Dark correction=	Off
#Inst. Process=	Off
#Instrument=	LabRAM HR Evol
#Detector=	Syncerity OE
#Objective=	x100_VIS_LWD
#Grating=	600 (500nm)
#ND Filter=	25%
#Laser=	633nm_Edge
#Hole=	100.021
#Range=	Visible
#Project=	Bolus
#Sample=	A5
#Site=	stripside
#Title=	m02
#Remark=	
#Date=	03.11.2025 16:17
#Acquired=	03.11.2025 16:17:41
100.969	52
102.252	52
103.535	57
104.818	57
106.101	52
107.384	57
108.666	55
109.948	50
111.232	56
112.514	52
113.795	58
115.077	57
116.358	56
117.639	58
118.919	60
120.2	56
121.48	61
122.76	60
124.04	59
125.32	62
126.599	50
127.879	50
129.158	62
130.436	59
131.715	60
132.992	58
134.27	55
135.548	61
136.826	56
138.104	66
139.381	66
140.658	67
141.935	65
143.212	56
144.489	60
145.763	60
147.04	62
148.315	73
149.591	64
150.867	66
152.142	66
153.416	64
154.691	61
155.965	65
157.24	64
158.514	70
159.786	71
161.06	70
162.334	69
163.607	61
164.881	68
166.152	64
167.425	68
168.698	54
169.969	68
171.241	70
172.513	73
173.785	60
175.055	73
176.326	70
177.597	72
178.867	63
180.137	62
181.408	65
182.677	66
183.947	64
185.217	71
186.485	74
187.755	69
189.022	64
190.291	71
191.56	67
192.828	68
194.096	63
195.363	64
196.631	72
197.899	66
199.165	70
200.432	68
201.698	64
202.965	58
204.23	67
205.497	72
206.762	68
208.028	72
209.293	71
210.559	58
211.823	66
213.088	63
214.352	70
215.617	68
216.88	66
218.145	62
219.408	64
220.672	66
221.934	65
223.196	66
224.46	70
225.722	58
226.985	61
228.246	62
229.508	64
230.77	67
232.031	67
233.292	67
234.554	60
235.814	60
237.074	64
238.335	63
239.595	68
240.854	62
242.115	64
243.374	66
244.633	64
245.893	58
247.151	66
248.409	68
249.667	58
250.927	68
252.184	67
253.442	62
254.699	69
255.957	64
257.214	68
258.47	70
259.727	69
260.983	73
262.24	71
263.496	66
264.752	68
266.007	62
267.262	71
268.517	65
269.773	65
271.028	64
272.282	60
273.536	66
274.79	67
276.044	67
277.297	66
278.551	62
279.804	67
281.057	65
282.31	60
283.564	59
284.816	67
286.068	52
287.32	67
288.572	68
289.823	69
291.074	69
292.325	68
293.576	66
294.827	69
296.077	69
297.328	69
298.578	70
299.828	74
301.077	66
302.325	64
303.575	69
304.824	62
306.073	68
307.321	71
308.57	67
309.818	60
311.066	66
312.314	72
313.562	76
314.808	70
316.055	68
317.302	68
318.549	69
319.796	70
321.042	69
322.288	73
323.533	73
324.779	66
326.024	68
327.27	64
328.515	74
329.759	69
331.004	69
332.248	71
333.493	67
334.736	67
335.98	70
337.223	75
338.466	71
339.709	66
340.952	69
342.195	68
343.437	72
344.68	65
345.922	68
347.163	66
348.405	72
349.647	76
350.887	70
352.128	72
353.37	78
354.609	76
355.85	66
357.089	68
358.33	70
359.57	68
360.809	74
362.049	66
363.287	70
364.526	73
365.764	73
367.003	71
368.241	62
369.479	72
370.718	75
371.955	62
373.193	60
374.429	74
375.667	73
376.903	73
378.139	68
379.376	75
380.611	74
381.848	68
383.083	72
384.319	72
385.554	74
386.79	73
388.024	70
389.258	72
390.493	75
391.727	70
392.962	72
394.195	74
395.428	69
396.663	70
397.895	68
399.128	71
400.361	68
401.593	80
402.825	74
404.058	76
405.29	74
406.521	66
407.752	68
408.985	75
410.215	76
411.446	79
412.678	73
413.908	76
415.138	78
416.367	72
417.597	75
418.828	72
420.057	70
421.286	81
422.514	79
423.743	75
424.973	69
426.201	80
427.429	71
428.657	82
429.884	78
431.112	72
432.34	70
433.567	73
434.794	78
436.02	80
437.247	70
438.473	76
439.699	81
440.925	64
442.15	76
443.376	78
444.601	74
445.826	79
447.051	70
448.275	71
449.5	81
450.724	72
451.948	78
453.172	80
454.396	76
455.619	80
456.842	75
458.065	86
459.288	80
460.511	79
461.733	75
462.956	81
464.178	82
465.4	82
466.621	72
467.843	70
469.064	79
470.285	87
471.505	87
472.726	80
473.946	85
475.166	86
476.387	76
477.606	88
478.825	84
480.044	89
481.264	87
482.483	97
483.702	92
484.921	92
486.138	97
487.356	94
488.574	100
489.792	95
491.009	95
492.226	94
493.444	88
494.661	94
495.877	99
497.094	92
498.31	96
499.525	90
500.741	86
501.958	85
503.172	92
504.388	92
505.603	84
506.817	80
508.032	78
509.247	80
510.46	79
511.675	85
512.888	84
514.102	79
515.316	78
516.528	74
517.742	68
518.954	76
520.167	79
521.378	78
522.591	78
523.802	76
525.015	78
526.226	84
527.438	68
528.648	78
529.86	80
531.07	79
532.281	81
533.491	80
534.702	76
535.911	79
537.121	76
538.33	78
539.54	80
540.749	75
541.957	76
543.167	78
544.375	80
545.584	79
546.791	76
547.999	74
549.207	78
550.414	80
551.621	74
552.829	76
554.035	74
555.241	80
556.449	74
557.655	79
558.86	72
560.066	79
561.272	84
562.477	77
563.682	75
564.888	78
566.093	76
567.297	64
568.501	87
569.705	76
570.91	77
572.114	76
573.317	89
574.52	78
575.723	82
576.927	81
578.13	76
579.332	72
580.535	75
581.737	75
582.938	74
584.14	80
585.343	74
586.544	82
587.745	76
588.946	71
590.147	84
591.347	80
592.548	78
593.748	76
594.948	74
596.147	76
597.347	72
598.546	84
599.745	80
600.944	73
602.143	82
603.342	74
604.54	76
605.738	80
606.937	79
608.134	73
609.332	78
610.529	72
611.727	84
612.924	78
614.121	76
615.317	80
616.513	77
617.709	78
618.905	80
620.101	74
621.297	87
622.492	76
623.688	79
624.883	82
626.077	82
627.271	86
628.466	72
629.66	72
630.855	78
632.047	76
633.241	74
634.435	87
635.629	81
636.82	80
638.014	82
639.207	82
640.399	87
641.59	83
642.783	79
643.975	82
645.166	85
646.357	76
647.549	80
648.741	81
649.93	84
651.122	82
652.311	75
653.502	83
654.692	78
655.881	81
657.071	78
658.261	72
659.45	84
660.639	76
661.827	78
663.016	74
664.204	74
665.393	73
666.581	64
667.769	78
668.957	77
670.143	80
671.331	81
672.518	74
673.705	76
674.891	81
676.078	75
677.264	74
678.451	80
679.636	71
680.821	86
682.007	76
683.192	85
684.378	82
685.562	80
686.747	86
687.931	82
689.115	86
690.3	77
691.483	68
692.666	84
693.851	79
695.034	75
696.216	78
697.4	78
698.582	81
699.764	81
700.948	87
702.129	87
703.311	80
704.493	75
705.674	88
706.855	82
708.036	88
709.218	78
710.399	89
711.579	85
712.759	84
713.939	82
715.12	80
716.299	86
717.478	83
718.657	76
719.836	70
721.015	74
722.195	72
723.373	80
724.552	77
725.729	76
726.907	69
728.085	66
729.262	68
730.44	75
731.617	68
732.795	73
733.972	70
735.148	72
736.324	72
737.501	76
738.677	76
739.852	80
741.028	69
742.203	70
743.379	68
744.554	78
745.729	77
746.903	78
748.078	78
749.252	74
750.426	66
751.599	64
752.772	72
753.946	76
755.119	66
756.293	80
757.466	73
758.639	72
759.811	76
760.984	72
762.155	70
763.327	73
764.499	77
765.67	72
766.842	74
768.013	62
769.183	66
770.354	68
771.525	72
772.696	72
773.865	66
775.035	72
776.205	72
777.375	70
778.544	58
779.713	70
780.882	70
782.052	74
783.219	76
784.388	75
785.557	76
786.724	73
787.892	70
789.06	77
790.227	73
791.395	70
792.562	76
793.728	72
794.895	70
796.061	69
797.228	68
798.395	72
799.56	70
800.726	65
801.891	70
803.057	66
804.221	68
805.387	76
806.551	74
807.716	71
808.879	64
810.044	70
811.208	63
812.372	76
813.535	74
814.699	60
815.862	72
817.025	66
818.188	68
819.351	67
820.513	70
821.675	68
822.837	70
823.999	72
825.161	62
826.322	68
827.483	66
828.645	77
829.805	75
830.966	64
832.127	72
833.287	65
834.447	68
835.607	54
836.767	64
837.926	62
839.085	68
840.245	67
841.404	74
842.562	68
843.72	67
844.88	68
846.038	68
847.195	69
848.353	74
849.512	66
850.669	72
851.826	62
852.983	64
854.139	67
855.296	64
856.453	70
857.609	63
858.765	72
859.921	75
861.077	71
862.232	74
863.387	74
864.542	66
865.697	72
866.852	65
868.008	65
869.162	70
870.316	58
871.47	67
872.624	66
873.778	70
874.931	66
876.084	67
877.237	72
878.39	66
879.543	71
880.695	66
881.846	62
882.999	69
884.151	67
885.302	69
886.454	60
887.606	64
888.757	64
889.908	66
891.059	62
892.21	69
893.359	65
894.509	59
895.659	58
896.81	65
897.959	64
899.109	67
900.257	67
901.407	65
902.556	60
903.705	63
904.854	60
906.001	62
907.149	63
908.298	63
909.446	60
910.592	65
911.74	58
912.888	58
914.034	64
915.181	64
916.328	66
917.473	56
918.62	66
919.766	60
920.911	60
922.058	63
923.204	62
924.348	68
925.494	70
926.638	58
927.783	68
928.928	66
930.072	58
931.216	68
932.36	61
933.504	60
934.647	59
935.791	67
936.933	65
938.077	57
939.219	64
940.363	61
941.504	59
942.647	64
943.789	58
944.932	61
946.073	66
947.215	65
948.356	60
949.498	64
950.638	52
951.778	68
952.92	58
954.06	59
955.199	61
956.34	62
957.479	62
958.62	66
959.759	62
960.898	61
962.038	52
963.176	60
964.315	64
965.453	62
966.592	66
967.73	60
968.867	68
970.006	58
971.144	58.5
972.281	58
973.418	64
974.554	58
975.692	62
976.829	63
977.965	63
979.101	56
980.237	66
981.374	56
982.509	70
983.645	57
984.78	59
985.915	59
987.05	66
988.184	65
989.319	64
990.453	61
991.589	62
992.722	54
993.856	64
994.99	58
996.123	60
997.257	56
998.39	62
999.523	56
1000.66	63
1001.79	60
1002.92	54
1004.05	60
1005.18	56
1006.32	60
1007.45	63
1008.58	62
1009.71	48
1010.84	59
1011.97	56
1013.1	57
1014.23	62
1015.36	60
1016.49	56
1017.62	64
1018.75	61
1019.88	59
1021.01	62
1022.14	63
1023.27	58
1024.4	60
1025.53	58
1026.66	61
1027.79	62
1028.91	58
1030.04	61
1031.17	63
1032.3	56
1033.42	60
1034.55	61
1035.68	60
1036.81	58
1037.93	54
1039.06	61
1040.18	58
1041.31	58
1042.44	58
1043.56	56
1044.69	56
1045.81	60
1046.94	56
1048.06	66
1049.19	54
1050.31	62
1051.44	56
1052.56	59
1053.69	58
1054.81	55
1055.93	59
1057.06	57
1058.18	58
1059.3	61
1060.43	54
1061.55	52
1062.67	54
1063.79	56
1064.92	55
1066.04	56
1067.16	58
1068.28	63
1069.4	55
1070.52	61
1071.65	56
1072.77	65
1073.89	57
1075.01	55
1076.13	56
1077.25	57
1078.37	52
1079.49	54
1080.61	59
1081.73	59
1082.85	58
1083.97	61
1085.09	58
1086.2	50
1087.32	60
1088.44	55
1089.56	55
1090.68	60
1091.8	56
1092.91	54
1094.03	56
1095.15	55
1096.26	54
1097.38	46
1098.5	54
1099.61	51
1100.73	61
1101.85	60
1102.96	54
1104.08	46
1105.19	54
1106.31	58
1107.43	53
1108.54	54
1109.66	55
1110.77	56
1111.88	52
1113	49
1114.11	54
1115.23	55
1116.34	56
1117.46	52
1118.57	54
1119.68	56
1120.8	47
1121.91	52
1123.02	58
1124.13	57
1125.25	55
1126.36	60
1127.47	46
1128.58	60
1129.69	50
1130.8	58
1131.92	59
1133.03	58
1134.14	56
1135.25	52
1136.36	48
1137.47	52
1138.58	58
1139.69	44
1140.8	56
1141.91	58
1143.02	48
1144.13	52
1145.24	56
1146.35	50
1147.46	57
1148.56	55
1149.67	58
1150.78	52
1151.89	58
1153	51
1154.1	53
1155.21	54
1156.32	57
1157.43	54
1158.53	52
1159.64	49
1160.75	56
1161.85	48
1162.96	56
1164.07	54
1165.17	46
1166.28	52
1167.38	49
1168.49	56
1169.59	57
1170.7	52
1171.8	60
1172.91	56
1174.01	54
1175.12	51
1176.22	58
1177.32	54
1178.43	56
1179.53	44
1180.64	51
1181.74	50
1182.84	46
1183.94	46
1185.05	53
1186.15	53
1187.25	49
1188.35	51
1189.46	50
1190.56	50
1191.66	53
1192.76	50
1193.86	48
1194.96	53
1196.06	52.9951
1197.16	51.9336
1198.26	58.7146
1199.37	49.8666
1200.47	49.9338
1201.57	53.7696
1202.67	50.883
1203.77	49.9553
1204.86	53.4557
1205.96	49.8188
1207.06	49.1074
1208.16	47.8718
1209.26	52.7774
1210.36	47.267
1211.46	47.7207
1212.56	50.7734
1213.65	52.1889
1214.75	48.2552
1215.85	52.9233
1216.95	52.8372
1218.04	47.7349
1219.14	47.3413
1220.24	49.0311
1221.33	47.9826
1222.43	43.6509
1223.53	50.8874
1224.62	47.8559
1225.72	49.1045
1226.82	48.7247
1227.91	53.3572
1229.01	53.3528
1230.1	43.3655
1231.2	46.9031
1232.29	46.354
1233.39	54.2726
1234.48	51.1501
1235.58	51.0742
1236.67	47.9714
1237.77	48.7645
1238.86	44.9561
1239.95	46.712
1241.05	46.897
1242.14	49.0442
1243.23	47.1403
1244.33	51.0627
1245.42	52.566
1246.51	47.1171
1247.61	45.389
1248.7	48.7071
1249.79	45.7059
1250.88	48.4559
1251.97	53.3316
1253.07	51.1861
1254.16	50.2912
1255.25	49.9527
1256.34	50.308
1257.43	48.6217
1258.52	47.5393
1259.61	45.8405
1260.7	54.1661
1261.79	47.3749
1262.88	48.2383
1263.97	49.9917
1265.06	47.9457
1266.15	46.435
1267.24	46.7748
1268.33	44.907
1269.42	49.3304
1270.51	49.2374
1271.6	46.9479
1272.68	44.1927
1273.77	47.2074
1274.86	42.8682
1275.95	44.0632
1277.04	46.222
1278.12	44.8648
1279.21	50.1511
1280.3	49.7206
1281.39	48.9349
1282.47	46.1923
1283.56	46.056
1284.65	43.5647
1285.73	40.7299
1286.82	47.3225
1287.91	50.9023
1288.99	48.0191
1290.08	45.2157
1291.16	45.216
1292.25	47.488
1293.33	46.6178
1294.42	44.4617
1295.5	46.2282
1296.59	47.4077
1297.67	41.858
1298.76	43.0073
1299.84	46.5024
1300.92	50.5365
1302.01	48.4991
1303.09	46
1304.17	45.9138
1305.26	45.584
1306.34	51.5789
1307.34	47
1308.43	50
1309.52	44
1310.61	49
1311.7	45
1312.78	44
1313.87	48
1314.96	48
1316.04	47
1317.13	51
1318.22	46
1319.3	47
1320.39	38
1321.48	52
1322.56	40
1323.65	48
1324.73	46
1325.82	48
1326.9	46
1327.99	44
1329.07	46
1330.16	43
1331.24	48
1332.33	42
1333.41	38
1334.5	45
1335.58	48
1336.66	49
1337.75	49
1338.83	47
1339.91	42
1341	47
1342.08	40
1343.16	45
1344.24	47
1345.33	44
1346.41	47
1347.49	42
1348.57	40
1349.65	45
1350.74	43
1351.82	46
1352.9	44
1353.98	42
1355.06	52
1356.14	45
1357.22	42
1358.3	40
1359.38	43
1360.46	46
1361.54	51
1362.62	46
1363.7	46
1364.78	44
1365.86	40
1366.94	49
1368.02	44
1369.09	40
1370.17	41
1371.25	46
1372.33	49
1373.41	46
1374.48	44
1375.56	39
1376.64	43
1377.72	43
1378.79	48
1379.87	42
1380.95	47
1382.02	47
1383.1	38
1384.17	50
1385.25	47
1386.33	40
1387.4	42
1388.48	38
1389.55	50
1390.63	46
1391.7	51
1392.78	42
1393.85	43
1394.93	44
1396	48
1397.07	42
1398.15	50
1399.22	48
1400.3	42
1401.37	48
1402.44	48
1403.52	49
1404.59	46
1405.66	48
1406.73	54
1407.81	47
1408.88	42
1409.95	47
1411.02	52
1412.09	47
1413.17	50
1414.24	44
1415.31	44
1416.38	48
1417.45	46
1418.52	42
1419.59	44
1420.66	44
1421.73	40
1422.8	44
1423.87	50
1424.94	50
1426.01	45
1427.08	46
1428.15	44
1429.22	45
1430.29	44
1431.35	48
1432.42	38
1433.49	43
1434.56	41
1435.63	48
1436.69	43
1437.76	38
1438.83	46
1439.9	41
1440.96	42
1442.03	43
1443.1	44
1444.17	48
1445.23	42
1446.3	43
1447.36	43
1448.43	45
1449.49	44
1450.56	40
1451.63	45
1452.69	44
1453.76	42
1454.82	38
1455.89	48
1456.95	44
1458.01	39
1459.08	40
1460.14	40
1461.21	40
1462.27	40
1463.34	40
1464.4	36
1465.46	40
1466.52	42
1467.59	46
1468.65	41
1469.71	48
1470.77	49
1471.84	42
1472.9	42
1473.96	40
1475.02	44
1476.08	40
1477.15	41
1478.21	46
1479.27	36
1480.33	45
1481.39	42
1482.45	44
1483.51	42
1484.57	43
1485.63	44
1486.69	41
1487.75	38
1488.81	43
1489.87	50
1490.93	44
1491.99	40
1493.05	41
1494.1	46
1495.16	44
1496.22	40
1497.28	36
1498.34	42
1499.4	43
1500.45	44
1501.51	44
1502.57	38
1503.63	41
1504.68	41
1505.74	40
1506.8	46
1507.85	38
1508.91	44
1509.97	40
1511.02	40
1512.08	40
1513.13	47
1514.19	43
1515.24	38
1516.3	46
1517.35	46
1518.41	44
1519.46	45
1520.52	40
1521.57	45
1522.63	39
1523.68	40
1524.73	32
1525.79	42
1526.84	32
1527.9	32
1528.95	40
1530	39
1531.05	42
1532.11	41
1533.16	43
1534.21	42
1535.26	46
1536.32	40
1537.37	44
1538.42	49
1539.47	35
1540.52	43
1541.57	44
1542.63	47
1543.68	44
1544.73	38
1545.78	44
1546.83	42
1547.88	40
1548.93	39
1549.98	44
1551.03	46
1552.08	45
1553.13	45
1554.18	43
1555.23	41
1556.27	40
1557.32	40
1558.37	44
1559.42	40
1560.47	47
1561.52	38
1562.56	40
1563.61	44
1564.66	42
1565.71	38
1566.75	45
1567.8	42
1568.85	40
1569.9	39
1570.94	37
1571.99	42
1573.03	37
1574.08	39
1575.13	40
1576.17	38
1577.22	44
1578.26	38
1579.31	46
1580.35	41
1581.4	38
1582.44	42
1583.49	40
1584.53	44
1585.58	43
1586.62	40
1587.66	44
1588.71	37
1589.75	40
1590.8	36
1591.84	36
1592.88	38
1593.92	36
1594.97	42
1596.01	42
1597.05	42
1598.1	38
1599.14	45
1600.18	46
1601.22	40
1602.26	42
1603.3	42
1604.35	46
1605.39	38
1606.43	42
1607.47	38
1608.51	45
1609.55	41
1610.59	36
1611.63	44
1612.67	42
1613.71	43
1614.75	43
1615.79	41
1616.83	41
1617.87	40
1618.91	39
1619.95	36
1620.99	36
1622.02	40
1623.06	35
1624.1	44
1625.14	42
1626.18	41
1627.21	36
1628.25	40
1629.29	46
1630.33	46
1631.36	38
1632.4	42
1633.44	41
1634.48	42
1635.51	42
1636.55	38
1637.58	42
1638.62	46
1639.66	41
1640.69	41
1641.73	38
1642.76	40
1643.8	40
1644.83	42
1645.87	38
1646.9	41
1647.94	40
1648.97	48
1650	42
1651.04	42
1652.07	36
1653.11	42
1654.14	43
1655.17	46
1656.21	40
1657.24	40
1658.27	39
1659.31	36
1660.34	38
1661.37	36
1662.4	41
1663.43	38
1664.47	40
1665.5	39
1666.53	42
1667.56	41
1668.59	44
1669.62	38
1670.66	44
1671.69	36
1672.72	42
1673.75	40
1674.78	34
1675.81	35
1676.84	38
1677.87	40
1678.9	35
1679.93	42
1680.96	41
1681.98	38
1683.01	32
1684.04	38
1685.07	39
1686.1	43
1687.13	37
1688.16	45
1689.18	36
1690.21	42
1691.24	42
1692.27	38
1693.3	38
1694.32	41
1695.35	36
1696.38	39
1697.4	40
1698.43	34
1699.46	42
1700.48	34
1701.51	40
1702.54	47
1703.56	38
1704.59	39
1705.61	37
1706.64	36
1707.66	32
1708.69	35
1709.71	40
1710.74	35
1711.76	40
1712.79	41
1713.81	40
1714.83	38
1715.86	43
1716.88	38
1717.91	38
1718.93	37
1719.95	42
1720.98	32
1722	44
1723.02	34
1724.04	44
1725.07	35
1726.09	42
1727.11	38
1728.13	40
1729.15	42
1730.18	47
1731.2	36
1732.22	44
1733.24	36
1734.26	44
1735.28	37
1736.3	42
1737.32	45
1738.34	37
1739.36	38
1740.38	36
1741.4	38
1742.42	41
1743.44	36
1744.46	40
1745.48	36
1746.5	30
1747.52	38
1748.54	38
1749.56	43
1750.58	32
1751.6	40
1752.61	35
1753.63	38
1754.65	35
1755.67	40
1756.68	36
1757.7	41
1758.72	43
1759.74	36
1760.75	37
1761.77	38
1762.79	36
1763.8	38
1764.82	41
1765.83	38
1766.85	40
1767.87	38
1768.88	34
1769.9	42
1770.91	44
1771.93	36
1772.94	41
1773.96	38
1774.97	39
1775.99	40
1777	40
1778.02	39
1779.03	39
1780.04	40
1781.06	41
1782.07	36
1783.09	37
1784.1	36
1785.11	39
1786.13	41
1787.14	40
1788.15	36
1789.16	37
1790.18	42
1791.19	36
1792.2	34
1793.21	41
1794.22	38
1795.23	34
1796.25	36
1797.26	36
1798.27	41
1799.28	41
1800.29	34
1801.3	38
1802.31	40
1803.32	41
1804.33	40
1805.34	40
1806.35	38
1807.36	41
1808.37	38
1809.38	42
1810.39	36
1811.4	38
1812.41	39
1813.42	43
1814.42	38
1815.43	38
1816.44	42
1817.45	36
1818.46	41
1819.47	38
1820.47	36
1821.48	32
1822.49	40
1823.49	32
1824.5	41
1825.51	39
1826.52	40
1827.52	39
1828.53	38
1829.53	31
1830.54	43
1831.55	36
1832.55	32
1833.56	38
1834.56	33
1835.57	41
1836.57	40
1837.58	33
1838.58	32
1839.59	42
1840.59	40
1841.6	38
1842.6	34
1843.61	38
1844.61	32
1845.61	39
1846.62	40
1847.62	38
1848.62	38
1849.63	39
1850.63	40
1851.63	34
1852.64	38
1853.64	32
1854.64	38
1855.64	40
1856.64	36
1857.65	36
1858.65	38
1859.65	39
1860.65	36
1861.65	41
1862.65	36
1863.65	35
1864.66	33
1865.66	36
1866.66	36
1867.66	40
1868.66	38
1869.66	33
1870.66	32
1871.66	36
1872.66	32
1873.66	36
1874.66	34
1875.65	42
1876.65	34
1877.65	34
1878.65	41
1879.65	37
1880.65	35
1881.65	26
1882.64	36
1883.64	36
1884.64	38
1885.64	36
1886.63	37
1887.63	32
1888.63	36
1889.63	38
1890.62	32
1891.62	39
1892.62	36
1893.61	37
1894.61	28
1895.6	32
1896.6	39
1897.6	34
1898.59	38
1899.59	34
1900.58	36
1901.58	38
1902.57	39
1903.57	28
1904.56	42
1905.56	40
1906.55	35
1907.54	36
1908.54	38
1909.53	43
1910.53	40
1911.52	34
1912.51	34
1913.51	34
1914.5	44
1915.49	38
1916.49	33
1917.48	28
1918.47	35
1919.46	28
1920.46	33
1921.45	33
1922.44	39
1923.43	41
1924.42	36
1925.41	35
1926.41	30
1927.4	38
1928.39	28
1929.38	35
1930.37	41
1931.36	34
1932.35	37
1933.34	38
1934.33	36
1935.32	37
1936.31	34
1937.3	36
1938.29	38
1939.28	40
1940.27	38
1941.26	33
1942.24	33
1943.23	35
1944.22	40
1945.21	34
1946.2	35
1947.19	34
1948.17	36
1949.16	35
1950.15	36.5
1951.14	36
1952.12	34
1953.11	37
1954.1	37
1955.09	36
1956.07	34
1957.06	40
1958.05	36
1959.03	33
1960.02	38
1961	37
1961.99	36
1962.98	32
1963.96	33
1964.95	41
1965.93	32
1966.92	39
1967.9	37
1968.89	37
1969.87	35
1970.85	40
1971.84	37
1972.82	39
1973.81	34
1974.79	38
1975.78	36
1976.76	36
1977.74	33
1978.73	32
1979.71	32
1980.69	37
1981.67	36
1982.66	36
1983.64	38
1984.62	37
1985.6	32
1986.59	39
1987.57	36
1988.55	36
1989.53	32
1990.51	36
1991.49	36
1992.47	38
1993.45	38
1994.44	34
1995.42	39
1996.4	34
1997.38	26
1998.36	36
1999.34	39
2000.32	33
2001.3	38
2002.28	34
2003.26	38
2004.24	32
2005.22	33
2006.19	34
2007.17	34
2008.15	34
2009.13	30
2010.11	34
2011.09	36
2012.06	34
2013.04	32
2014.02	34
2015	34
2015.98	32
2016.95	37
2017.93	35
2018.91	32
2019.88	38
2020.86	29
2021.84	32
2022.81	24
2023.79	33
2024.77	34
2025.74	30
2026.72	36
2027.69	30
2028.67	37
2029.65	32
2030.62	30
2031.6	37
2032.57	32
2033.55	35
2034.52	32
2035.5	32
2036.47	30
2037.44	35
2038.42	40
2039.39	34
2040.36	36
2041.34	35
2042.31	36
2043.29	26
2044.26	35
2045.23	26
2046.2	33
2047.18	39
2048.15	33
2049.12	33
2050.09	31
2051.07	36
2052.04	37
2053.01	38
2053.98	36
2054.95	32
2055.93	30
2056.9	32
2057.87	34
2058.84	31
2059.81	32
2060.78	34
2061.75	37
2062.72	34
2063.69	34
2064.66	30
2065.63	34
2066.6	28
2067.57	35
2068.54	30
2069.51	31
2070.48	32
2071.45	34
2072.42	37
2073.38	34
2074.35	35
2075.32	33
2076.29	37
2077.26	24
2078.23	35
2079.19	32
2080.16	35
2081.13	37
2082.1	37
2083.06	33
2084.03	26
2085	33
2085.96	32
2086.93	35
2087.9	32
2088.86	32
2089.83	39
2090.8	34
2091.76	34
2092.73	38
2093.69	28
2094.66	34
2095.62	32
2096.59	30
2097.55	35
2098.52	35
2099.48	28
2100.45	31
2101.41	38
2102.38	29
2103.34	32
2104.31	32
2105.27	32
2106.23	33
2107.2	32
2108.16	37
2109.12	31
2110.09	33
2111.05	33
2112.01	39
2112.98	36
2113.94	34
2114.9	32
2115.86	32
2116.82	32
2117.79	35
2118.75	30
2119.71	33
2120.67	33
2121.63	36
2122.59	29
2123.55	33
2124.52	34
2125.48	34
2126.44	34
2127.4	34
2128.36	31
2129.32	32
2130.28	24
2131.24	33
2132.2	33
2133.16	31
2134.12	33
2135.08	35
2136.04	35
2136.99	34
2137.95	30
2138.91	26
2139.87	36
2140.83	31
2141.79	35
2142.75	32
2143.7	24
2144.66	36
2145.62	36.9687
2146.58	33.9024
2147.53	33.9327
2148.49	30.1317
2149.45	30.0815
2150.41	30
2151.36	33.7451
2152.32	35.5633
2153.27	30.0602
2154.23	29.6371
2155.19	29.7941
2156.14	28.8919
2157.1	33.4142
2158.06	31.5172
2159.01	31.1348
2159.97	29.139
2160.92	26.01
2161.88	32.4981
2162.83	30.4467
2163.79	32.1912
2164.74	31.9999
2165.7	33.9421
2166.65	27.5347
2167.61	30.7835
2168.56	34.793
2169.51	30.0074
2170.47	30.7527
2171.42	28.267
2172.38	31.3909
2173.33	30.9856
2174.28	30.57
2175.24	34.2706
2176.19	33.3835
2177.14	30.7174
2178.09	32.5756
2179.05	30.0882
2180	30.4748
2180.95	30.7636
2181.9	29.3651
2182.86	32
2183.81	27.8869
2184.76	33.7379
2185.71	32.2101
2186.66	32.2059
2187.61	32.3815
2188.57	30.5083
2189.52	35.1098
2190.47	28.593
2191.42	28.9714
2192.37	28.4707
2193.32	32.3486
2194.27	31.1775
2195.22	32.3723
2196.17	33.5245
2197.12	31.724
2198.07	32.0219
2199.02	27.315
2199.97	29.7638
2200.92	29.4939
2201.87	30.3889
2202.82	32.4774
2203.76	32.4598
2204.71	32.823
2205.66	32.2785
2206.61	31.6324
2207.56	32
2208.51	25.6409
2209.45	28.7232
2210.4	31.6849
2211.35	33.1132
2212.3	32.3329
2213.24	30.8565
2214.19	29.4216
2215.14	30.5588
2216.09	27.8954
2217.03	27.5778
2217.98	30.3151
2218.93	28.9846
2219.87	30.2294
2220.82	29.1396
2221.77	28.387
2222.71	31.3209
2223.66	31.8753
2224.6	30
2225.55	31.7922
2226.49	32.1618
2227.44	31.3399
2228.38	29.8578
2229.33	31.9778
2230.27	32.873
2231.22	32.0012
2232.16	31.7136
2233.11	29.2607
2234.05	26.6943
2235	30.8552
2235.94	30.0557
2236.88	30.1851
2237.83	32.1324
2238.77	30.6454
2239.71	27.6759
2240.66	26.5907
2241.6	28.7541
2242	30
2242.95	30
2243.9	31
2244.84	34
2245.79	30
2246.74	33
2247.69	32
2248.63	30
2249.58	30
2250.53	29
2251.47	22
2252.42	31
2253.37	32
2254.31	29
2255.26	29
2256.2	32
2257.15	28
2258.1	30
2259.04	34
2259.99	29
2260.93	30
2261.88	27
2262.82	28
2263.77	32
2264.71	28
2265.65	38
2266.6	30
2267.54	31
2268.49	31
2269.43	33
2270.38	31
2271.32	30
2272.26	34
2273.21	33
2274.15	30
2275.09	30
2276.04	28
2276.98	30
2277.92	27
2278.86	32
2279.81	28
2280.75	24
2281.69	30
2282.63	31
2283.57	32
2284.52	34
2285.46	22
2286.4	29
2287.34	32
2288.28	30
2289.22	31
2290.16	26
2291.1	36
2292.04	30
2292.98	32
2293.93	28
2294.86	27
2295.8	24
2296.74	25
2297.69	31
2298.62	28
2299.56	24
2300.5	29
2301.44	32
2302.38	28
2303.32	22
2304.26	30
2305.2	33
2306.14	30
2307.07	24
2308.01	28
2308.95	28
2309.89	30
2310.83	32
2311.76	26
2312.7	31
2313.64	34
2314.58	31
2315.51	24
2316.45	26
2317.39	32
2318.32	28
2319.26	31
2320.2	32
2321.13	30
2322.07	30
2323	25
2323.94	34
2324.88	30
2325.81	30
2326.75	32
2327.68	30
2328.62	32
2329.55	28
2330.49	30
2331.42	31
2332.36	32
2333.29	31
2334.22	34
2335.16	30
2336.09	29
2337.03	32
2337.96	33
2338.89	29
2339.83	28
2340.76	30
2341.69	29
2342.63	28
2343.56	28
2344.49	31
2345.43	32
2346.36	26
2347.29	31
2348.22	32
2349.15	32
2350.09	24
2351.02	32
2351.95	36
2352.88	28
2353.81	30
2354.74	31
2355.67	28
2356.61	26
2357.54	26
2358.47	30
2359.4	32
2360.33	29
2361.26	29
2362.19	26
2363.12	28
2364.05	28
2364.98	34
2365.91	36
2366.84	28
2367.77	30
2368.7	35
2369.62	30
2370.55	32
2371.48	26
2372.41	30
2373.34	32
2374.27	28
2375.2	32
2376.12	35
2377.05	26
2377.98	30
2378.91	30
2379.83	34
2380.76	26
2381.69	33
2382.62	30
2383.54	34
2384.47	31
2385.4	28
2386.32	32
2387.25	32
2388.18	32
2389.1	28
2390.03	30
2390.95	32
2391.88	30
2392.81	32
2393.73	32
2394.66	31
2395.58	30
2396.51	32
2397.43	33
2398.36	28
2399.28	26
2400.2	26
2401.13	30
2402.05	28
2402.98	31
2403.9	24
2404.83	30
2405.75	26
2406.67	27
2407.6	27
2408.52	32
2409.44	24
2410.37	30
2411.29	31
2412.21	31
2413.13	24
2414.06	34
2414.98	30
2415.9	26
2416.82	32
2417.74	30
2418.67	31
2419.59	30
2420.51	32
2421.43	30
2422.35	32
2423.27	31
2424.19	30
2425.11	30
2426.03	30
2426.96	20
2427.88	29
2428.8	35
2429.72	32
2430.64	30
2431.56	34
2432.48	26
2433.39	31
2434.31	34
2435.23	30
2436.15	28
2437.07	32
2437.99	31
2438.91	32
2439.83	30
2440.75	28
2441.67	36
2442.58	30
2443.5	28
2444.42	30
2445.34	32
2446.26	34
2447.17	30
2448.09	28
2449.01	30
2449.92	28
2450.84	28
2451.76	28
2452.68	30
2453.59	30
2454.51	28
2455.42	28
2456.34	34
2457.26	28
2458.17	30
2459.09	28
2460	34
2460.92	29
2461.83	31
2462.75	29
2463.66	33
2464.58	32
2465.49	35
2466.41	28
2467.32	26
2468.24	30
2469.15	28
2470.07	27
2470.98	34
2471.89	32
2472.81	28
2473.72	37
2474.64	30
2475.55	30
2476.46	28
2477.37	27
2478.29	28
2479.2	32
2480.11	32
2481.03	32
2481.94	34
2482.85	32
2483.76	28
2484.67	29
2485.59	26
2486.5	27
2487.41	30
2488.32	32
2489.23	34
2490.14	22
2491.05	33
2491.97	30
2492.88	35
2493.79	29
2494.7	32
2495.61	28
2496.52	30
2497.43	28
2498.34	28
2499.25	34
2500.16	32
2501.07	30
2501.98	34
2502.89	30
2503.79	26
2504.7	29
2505.61	29
2506.52	31
2507.43	35
2508.34	29
2509.25	31
2510.16	30
2511.06	28
2511.97	27
2512.88	26
2513.79	29
2514.69	33
2515.6	32
2516.51	28
2517.42	28
2518.32	28
2519.23	37
2520.14	33
2521.04	30
2521.95	33
2522.86	26
2523.76	33
2524.67	32
2525.57	32
2526.48	29
2527.39	32
2528.29	28
2529.2	31
2530.1	30
2531.01	29
2531.91	32
2532.82	31
2533.72	35
2534.63	30
2535.53	30
2536.44	24
2537.34	30
2538.24	28
2539.15	31
2540.05	31
2540.96	37
2541.86	30
2542.76	30
2543.67	29
2544.57	31
2545.47	32
2546.37	31
2547.28	26
2548.18	28
2549.08	29
2549.99	28
2550.89	32
2551.79	28
2552.69	27
2553.59	30
2554.49	36
2555.4	26
2556.3	30
2557.2	34
2558.1	34
2559	33
2559.9	33
2560.8	27
2561.7	32
2562.6	26
2563.5	30
2564.4	24
2565.3	29
2566.2	29
2567.1	28
2568	28
2568.9	26
2569.8	26
2570.7	34
2571.6	28
2572.5	26
2573.4	30
2574.3	33
2575.2	30
2576.1	34
2576.99	27
2577.89	24
2578.79	34
2579.69	28
2580.59	29
2581.48	29
2582.38	32
2583.28	33
2584.18	31
2585.07	30
2585.97	29
2586.87	30
2587.76	31
2588.66	28
2589.56	30
2590.45	31
2591.35	27
2592.25	28
2593.14	28
2594.04	30
2594.93	31
2595.83	26
2596.73	32
2597.62	30
2598.52	28
2599.41	22
2600.31	29
2601.2	26
2602.1	27
2602.99	31
2603.88	33
2604.78	27
2605.67	28
2606.57	29
2607.46	32
2608.35	34
2609.25	28
2610.14	30
2611.03	30
2611.93	31
2612.82	26
2613.71	29
2614.61	33
2615.5	32
2616.39	32
2617.29	31
2618.18	32
2619.07	30
2619.96	30
2620.85	25
2621.75	28
2622.64	33
2623.53	27
2624.42	25
2625.31	26
2626.2	32
2627.09	30
2627.98	32
2628.88	30
2629.77	31
2630.66	30
2631.55	29
2632.44	34
2633.33	30
2634.22	28
2635.11	30
2636	29
2636.89	30
2637.78	26
2638.66	30
2639.55	32
2640.44	24
2641.33	32
2642.22	25
2643.11	28
2644	30
2644.89	28
2645.78	32
2646.66	34
2647.55	31
2648.44	32
2649.33	31
2650.21	31
2651.1	30
2651.99	31
2652.88	29
2653.76	30
2654.65	30
2655.54	26
2656.42	32
2657.31	32
2658.2	36
2659.08	28
2659.97	26
2660.86	31
2661.74	35
2662.63	28
2663.51	28
2664.4	31
2665.29	26
2666.17	30
2667.06	35
2667.94	28
2668.83	30
2669.71	26
2670.6	26
2671.48	32
2672.36	30
2673.25	30
2674.13	31
2675.02	30
2675.9	28
2676.78	28
2677.67	28
2678.55	28
2679.43	29
2680.32	28
2681.2	29
2682.08	29
2682.97	30
2683.85	33
2684.73	27
2685.61	28
2686.5	32
2687.38	32
2688.26	30
2689.14	24
2690.03	28
2690.91	26
2691.79	34
2692.67	22
2693.55	29
2694.43	30
2695.31	24
2696.19	26
2697.08	26
2697.96	26
2698.84	31
2699.72	30
2700.6	31
2701.48	34
2702.36	28
2703.24	26
2704.12	29
2705	31
2705.88	28
2706.76	22
2707.64	28
2708.51	30
2709.39	32
2710.27	27
2711.15	28
2712.03	26
2712.91	28
2713.79	28
2714.67	26
2715.54	32
2716.42	32
2717.3	33
2718.18	30
2719.05	30
2719.93	32
2720.81	33
2721.69	33
2722.56	28
2723.44	31
2724.32	27
2725.19	24
2726.07	29
2726.95	30
2727.82	30
2728.7	29
2729.58	29
2730.45	31
2731.33	30
2732.2	33
2733.08	26
2733.95	28
2734.83	31
2735.7	31
2736.58	26
2737.45	28
2738.33	29
2739.2	30
2740.08	29
2740.95	28
2741.83	26
2742.7	26
2743.58	30
2744.45	29
2745.32	30
2746.2	28
2747.07	29
2747.94	31
2748.82	30
2749.69	33
2750.56	31
2751.44	30
2752.31	31
2753.18	30
2754.05	30
2754.93	29
2755.8	27
2756.67	28
2757.54	27
2758.42	30
2759.29	30
2760.16	32
2761.03	26
2761.9	30
2762.77	32
2763.64	30
2764.51	32
2765.38	26
2766.26	26
2767.13	20
2768	33
2768.87	28
2769.74	29
2770.61	28
2771.48	24
2772.35	33
2773.22	28
2774.09	30
2774.96	31
2775.83	32
2776.7	27
2777.56	30
2778.43	24
2779.3	28
2780.17	30
2781.04	28
2781.91	27
2782.78	27
2783.64	28
2784.51	33
2785.38	31
2786.25	30
2787.12	32
2787.98	32
2788.85	29
2789.72	30
2790.59	30
2791.45	32
2792.32	37
2793.19	27
2794.05	28
2794.92	26
2795.79	28
2796.65	32
2797.52	28
2798.38	30
2799.25	30
2800.12	31
2800.98	26
2801.85	28
2802.71	26
2803.58	28
2804.44	30
2805.31	27
2806.17	28
2807.04	29
2807.9	25
2808.77	30
2809.63	29
2810.5	30
2811.36	30
2812.22	33
2813.09	30
2813.95	32
2814.82	27
2815.68	24
2816.54	28
2817.41	28
2818.27	26
2819.13	26
2820	26
2820.86	26
2821.72	34
2822.58	28
2823.45	26
2824.31	30
2825.17	29
2826.03	31
2826.9	26
2827.76	38
2828.62	31
2829.48	30
2830.34	26
2831.2	31
2832.06	29
2832.92	33
2833.79	30
2834.65	22
2835.51	30
2836.37	30
2837.23	35
2838.09	29
2838.95	24
2839.81	32
2840.67	20
2841.53	29
2842.39	29
2843.25	28
2844.11	32
2844.97	32
2845.83	28
2846.68	30
2847.54	29
2848.4	27
2849.26	28
2850.12	30
2850.98	28
2851.84	33
2852.69	24
2853.55	30
2854.41	31
2855.27	26
2856.13	31
2856.98	28
2857.84	31
2858.7	31
2859.56	32
2860.41	26
2861.27	28
2862.13	32
2862.98	30
2863.84	28
2864.7	29
2865.55	34
2866.41	32
2867.27	32
2868.12	26
2868.98	27
2869.83	28
2870.69	27
2871.54	24
2872.4	30
2873.25	28
2874.11	33
2874.96	33
2875.82	34
2876.68	35
2877.53	36
2878.38	38
2879.24	24
2880.09	31
2880.95	34
2881.8	35
2882.65	38
2883.51	34
2884.36	33
2885.22	34
2886.07	36
2886.92	39
2887.77	31
2888.63	34
2889.48	33
2890.33	36
2891.19	42
2892.04	34
2892.89	42
2893.74	46
2894.6	38
2895.45	42
2896.3	43
2897.15	42
2898	47
2898.85	44
2899.71	47
2900.56	52
2901.41	53
2902.26	56
2903.11	56
2903.96	63
2904.81	64
2905.66	54
2906.51	58
2907.36	65
2908.21	60
2909.06	62
2909.91	52
2910.76	55
2911.61	52
2912.46	55
2913.31	50
2914.16	48
2915.01	44
2915.86	40
2916.71	44
2917.56	42
2918.41	40
2919.26	42
2920.1	30
2920.95	28
2921.8	38
2922.65	32
2923.5	38
2924.34	30
2925.19	35
2926.04	30
2926.89	33
2927.74	30
2928.58	32
2929.43	32
2930.28	34
2931.12	38
2931.97	37
2932.82	29
2933.66	31
2934.51	20
2935.36	34
2936.2	32
2937.05	31
2937.89	28
2938.74	35
2939.59	28
2940.43	36
2941.28	31
2942.12	32
2942.97	28
2943.81	35
2944.66	32
2945.5	31
2946.35	32
2947.19	27
2948.04	29
2948.88	25
2949.72	26
2950.57	34
2951.41	31
2952.26	35
2953.1	31
2953.94	33
2954.79	38
2955.63	31
2956.47	36
2957.32	39
2958.16	36
2959	38
2959.85	40
2960.69	37
2961.53	40
2962.37	42
2963.22	40
2964.06	45
2964.9	44
2965.74	40
2966.58	39
2967.42	40
2968.27	41
2969.11	41
2969.95	41
2970.79	39
2971.63	44
2972.47	36
2973.31	38
2974.15	37
2974.99	38
2975.83	31
2976.68	37
2977.52	35
2978.36	33
2979.2	34
2980.04	30
2980.88	31
2981.71	30
2982.55	33
2983.39	33
2984.23	29
2985.07	32
2985.91	33
2986.75	33
2987.59	30
2988.43	28
2989.27	32
2990.1	29
2990.94	30
2991.78	20
2992.62	28
2993.46	28
2994.3	32
2995.13	26
2995.97	31
2996.81	30
2997.64	31
2998.48	30
2999.32	32
