#Acq. time (s)=	3
#Accumulations=	3
#Range (cm-¹)=	100...3000
#Windows=	3
#Autofocus=	Off
#AutoExposure=	Off
#Spike filter=	Multiple accum.
#Delay time (s)=	0
#Binning=	1
#Readout mode=	Signal
#DeNoise=	Off
#ICS correction=	Off
#Dark correction=	Off
#Inst. Process=	Off
#Instrument=	LabRAM HR Evol
#Detector=	Syncerity OE
#Objective=	x100_VIS_LWD
#Grating=	600 (500nm)
#ND Filter=	25%
#Laser=	633nm_Edge
#Hole=	100.021
#Range=	Visible
#Project=	Bolus
#Sample=	A5
#Site=	stripside
#Title=	m05
#Remark=	
#Date=	03.11.2025 16:23
#Acquired=	03.11.2025 16:23:22
100.969	24
102.252	38
103.535	30
104.818	28
106.101	31
107.384	36
108.666	34
109.948	30
111.232	26
112.514	35
113.795	36
115.077	34
116.358	34
117.639	34
118.919	37
120.2	34
121.48	30
122.76	32
124.04	34
125.32	32
126.599	28
127.879	32
129.158	37
130.436	37
131.715	38
132.992	32
134.27	32
135.548	32
136.826	30
138.104	34
139.381	38
140.658	35
141.935	36
143.212	40
144.489	38
145.763	40
147.04	35
148.315	38
149.591	36
150.867	40
152.142	41
153.416	41
154.691	40
155.965	41
157.24	38
158.514	40
159.786	43
161.06	42
162.334	35
163.607	44
164.881	36
166.152	32
167.425	43
168.698	36
169.969	41
171.241	42
172.513	38
173.785	42
175.055	36
176.326	43
177.597	38
178.867	40
180.137	37
181.408	42
182.677	37
183.947	38
185.217	42
186.485	39
187.755	40
189.022	46
190.291	41
191.56	34
192.828	38
194.096	39
195.363	48
196.631	41
197.899	34
199.165	38
200.432	41
201.698	35
202.965	39
204.23	39
205.497	35
206.762	34
208.028	39
209.293	42
210.559	36
211.823	36
213.088	34
214.352	43
215.617	35
216.88	40
218.145	31
219.408	37
220.672	32
221.934	32
223.196	35
224.46	37
225.722	30
226.985	32
228.246	30
229.508	36
230.77	36
232.031	33
233.292	35
234.554	34
235.814	30
237.074	30
238.335	34
239.595	31
240.854	30
242.115	38
243.374	31
244.633	35
245.893	32
247.151	30
248.409	31
249.667	29
250.927	25
252.184	32
253.442	34
254.699	32
255.957	27
257.214	34
258.47	30
259.727	33
260.983	32
262.24	30
263.496	28
264.752	32
266.007	30
267.262	31
268.517	30
269.773	34
271.028	34
272.282	26
273.536	34
274.79	29
276.044	24
277.297	24
278.551	35
279.804	32
281.057	28
282.31	31
283.564	30
284.816	31
286.068	32
287.32	26
288.572	30
289.823	28
291.074	30
292.325	27
293.576	30
294.827	28
296.077	30
297.328	31
298.578	34
299.828	26
301.077	27
302.325	34
303.575	34
304.824	32
306.073	26
307.321	30
308.57	32
309.818	30
311.066	32
312.314	29
313.562	32
314.808	26
316.055	32
317.302	32
318.549	36
319.796	30
321.042	32
322.288	26
323.533	30
324.779	30
326.024	30
327.27	28
328.515	33
329.759	34
331.004	31
332.248	35
333.493	35
334.736	32
335.98	30
337.223	32
338.466	33
339.709	34
340.952	34
342.195	28
343.437	34
344.68	35
345.922	39
347.163	29
348.405	32
349.647	32
350.887	34
352.128	29
353.37	30
354.609	34
355.85	31
357.089	31
358.33	30
359.57	32
360.809	26
362.049	31
363.287	32
364.526	31
365.764	35
367.003	30
368.241	33
369.479	29
370.718	30
371.955	30
373.193	30
374.429	34
375.667	29
376.903	33
378.139	28
379.376	31
380.611	31
381.848	28
383.083	32
384.319	32
385.554	28
386.79	36
388.024	34
389.258	26
390.493	26
391.727	28
392.962	36
394.195	32
395.428	29
396.663	28
397.895	34
399.128	32
400.361	33
401.593	28
402.825	30
404.058	30
405.29	28
406.521	30
407.752	30
408.985	31
410.215	30
411.446	30
412.678	26
413.908	32
415.138	30
416.367	36
417.597	33
418.828	28
420.057	30
421.286	30
422.514	28
423.743	30
424.973	30
426.201	28
427.429	28
428.657	28
429.884	24
431.112	31
432.34	29
433.567	31
434.794	36
436.02	33
437.247	35
438.473	26
439.699	32
440.925	24
442.15	28
443.376	34
444.601	32
445.826	34
447.051	32
448.275	24
449.5	28
450.724	33
451.948	31
453.172	29
454.396	32
455.619	32
456.842	32
458.065	30
459.288	34
460.511	34
461.733	32
462.956	34
464.178	34
465.4	38
466.621	32
467.843	37
469.064	40
470.285	30
471.505	36
472.726	33
473.946	43
475.166	42
476.387	42
477.606	39
478.825	44
480.044	42
481.264	44
482.483	50
483.702	50
484.921	53
486.138	51
487.356	50
488.574	55
489.792	55
491.009	60
492.226	52
493.444	50
494.661	50
495.877	56
497.094	45
498.31	46
499.525	46
500.741	45
501.958	42
503.172	46
504.388	40
505.603	34
506.817	37
508.032	38
509.247	40
510.46	38
511.675	40
512.888	30
514.102	34
515.316	32
516.528	33
517.742	31
518.954	34
520.167	32
521.378	35
522.591	30
523.802	35
525.015	39
526.226	30
527.438	35
528.648	37
529.86	36
531.07	32
532.281	36
533.491	34
534.702	29
535.911	32
537.121	33
538.33	34
539.54	30
540.749	38
541.957	36
543.167	32
544.375	29
545.584	27
546.791	31
547.999	28
549.207	36
550.414	32
551.621	30
552.829	32
554.035	25
555.241	32
556.449	30
557.655	34
558.86	30
560.066	29
561.272	31
562.477	31
563.682	35
564.888	26
566.093	34
567.297	32
568.501	31
569.705	26
570.91	30
572.114	34
573.317	30
574.52	30
575.723	30
576.927	32
578.13	32
579.332	26
580.535	37
581.737	28
582.938	32
584.14	29
585.343	33
586.544	26
587.745	28
588.946	28
590.147	34
591.347	26
592.548	30
593.748	32
594.948	33
596.147	33
597.347	26
598.546	27
599.745	33
600.944	32
602.143	30
603.342	29
604.54	31
605.738	29
606.937	32
608.134	30
609.332	32
610.529	32
611.727	32
612.924	37
614.121	30
615.317	31
616.513	32
617.709	30
618.905	33
620.101	31
621.297	28
622.492	30
623.688	34
624.883	29
626.077	30
627.271	36
628.466	26
629.66	32
630.855	37
632.047	32
633.241	28
634.435	31
635.629	31
636.82	32
638.014	30
639.207	32
640.399	30
641.59	28
642.783	33
643.975	34
645.166	28
646.357	33
647.549	36
648.741	30
649.93	28
651.122	29
652.311	32
653.502	26
654.692	28
655.881	35
657.071	30
658.261	30
659.45	33
660.639	29
661.827	28
663.016	29
664.204	30
665.393	35
666.581	30
667.769	32
668.957	38
670.143	30
671.331	33
672.518	34
673.705	36
674.891	32
676.078	32
677.264	26
678.451	35
679.636	32
680.821	40
682.007	33
683.192	35
684.378	32
685.562	35
686.747	41
687.931	36
689.115	34
690.3	39
691.483	36
692.666	30
693.851	37
695.034	35
696.216	38
697.4	36
698.582	40
699.764	40
700.948	40
702.129	32
703.311	43
704.493	42
705.674	45
706.855	50
708.036	44
709.218	46
710.399	53
711.579	48
712.759	48
713.939	42
715.12	36
716.299	38
717.478	34
718.657	28
719.836	34
721.015	34
722.195	35
723.373	32
724.552	34
725.729	24
726.907	28
728.085	30
729.262	32
730.44	34
731.617	36
732.795	36
733.972	32
735.148	31
736.324	26
737.501	25
738.677	30
739.852	32
741.028	28
742.203	28
743.379	36
744.554	25
745.729	30
746.903	30
748.078	24
749.252	34
750.426	34
751.599	34
752.772	30
753.946	31
755.119	33
756.293	28
757.466	32
758.639	28
759.811	30
760.984	33
762.155	34
763.327	29
764.499	30
765.67	32
766.842	32
768.013	32
769.183	32
770.354	32
771.525	32
772.696	34
773.865	30
775.035	28
776.205	34
777.375	37
778.544	31
779.713	32
780.882	34
782.052	32
783.219	33
784.388	30
785.557	34
786.724	33
787.892	30
789.06	30
790.227	28
791.395	37
792.562	34
793.728	36
794.895	33
796.061	32
797.228	31
798.395	38
799.56	33
800.726	34
801.891	28
803.057	35
804.221	35
805.387	32
806.551	29
807.716	29
808.879	34
810.044	30
811.208	28
812.372	30
813.535	29
814.699	30
815.862	28
817.025	30
818.188	35
819.351	32
820.513	32
821.675	27
822.837	32
823.999	30
825.161	31
826.322	30
827.483	33
828.645	32
829.805	32
830.966	31
832.127	31
833.287	34
834.447	32
835.607	32
836.767	30
837.926	34
839.085	28
840.245	30
841.404	30
842.562	28
843.72	34
844.88	26
846.038	23
847.195	27
848.353	33
849.512	26
850.669	26
851.826	32
852.983	30
854.139	30
855.296	28
856.453	31
857.609	30
858.765	36
859.921	22
861.077	28
862.232	33
863.387	31
864.542	32
865.697	26
866.852	26
868.008	30
869.162	32
870.316	34
871.47	32
872.624	30
873.778	22
874.931	33
876.084	31
877.237	31
878.39	28
879.543	29
880.695	28
881.846	32
882.999	33
884.151	26
885.302	26
886.454	27
887.606	32
888.757	29
889.908	31
891.059	30
892.21	28
893.359	30
894.509	28
895.659	34
896.81	31
897.959	28
899.109	30
900.257	31
901.407	28
902.556	32
903.705	28
904.854	30
906.001	30
907.149	29
908.298	23
909.446	26
910.592	28
911.74	29
912.888	32
914.034	33
915.181	22
916.328	32
917.473	29
918.62	28
919.766	30
920.911	26
922.058	30
923.204	29
924.348	28
925.494	30
926.638	24
927.783	32
928.928	31
930.072	32
931.216	32
932.36	30
933.504	26
934.647	22
935.791	32
936.933	32
938.077	30
939.219	26
940.363	31
941.504	31
942.647	27
943.789	33
944.932	31
946.073	26
947.215	29
948.356	32
949.498	30
950.638	27
951.778	28
952.92	27
954.06	34
955.199	24
956.34	30
957.479	28
958.62	34
959.759	31
960.898	28
962.038	29
963.176	34
964.315	26
965.453	25
966.592	32
967.73	32
968.867	29
970.006	34
971.144	32.5
972.281	29
973.418	35
974.554	31
975.692	28
976.829	27
977.965	25
979.101	27
980.237	29
981.374	27
982.509	33
983.645	26
984.78	30
985.915	33
987.05	30
988.184	27
989.319	32
990.453	30
991.589	30
992.722	30
993.856	25
994.99	31
996.123	31
997.257	26
998.39	26
999.523	31
1000.66	31
1001.79	32
1002.92	31
1004.05	28
1005.18	29
1006.32	30
1007.45	32
1008.58	32
1009.71	28
1010.84	29
1011.97	28
1013.1	26
1014.23	26
1015.36	31
1016.49	33
1017.62	28
1018.75	29
1019.88	31
1021.01	32
1022.14	32
1023.27	33
1024.4	28
1025.53	24
1026.66	28
1027.79	24
1028.91	26
1030.04	34
1031.17	29
1032.3	31
1033.42	30
1034.55	30
1035.68	28
1036.81	30
1037.93	31
1039.06	33
1040.18	32
1041.31	32
1042.44	30
1043.56	30
1044.69	28
1045.81	32
1046.94	26
1048.06	28
1049.19	22
1050.31	24
1051.44	28
1052.56	26
1053.69	28
1054.81	30
1055.93	32
1057.06	25
1058.18	33
1059.3	33
1060.43	26
1061.55	28
1062.67	30
1063.79	30
1064.92	32
1066.04	27
1067.16	28
1068.28	31
1069.4	31
1070.52	28
1071.65	28
1072.77	22
1073.89	28
1075.01	29
1076.13	29
1077.25	27
1078.37	28
1079.49	26
1080.61	28
1081.73	31
1082.85	25
1083.97	29
1085.09	25
1086.2	27
1087.32	26
1088.44	28
1089.56	26
1090.68	29
1091.8	28
1092.91	28
1094.03	26
1095.15	28
1096.26	24
1097.38	33
1098.5	30
1099.61	32
1100.73	27
1101.85	27
1102.96	27
1104.08	26
1105.19	28
1106.31	30
1107.43	29
1108.54	28
1109.66	31
1110.77	27
1111.88	32
1113	22
1114.11	31
1115.23	31
1116.34	22
1117.46	23
1118.57	29
1119.68	26
1120.8	24
1121.91	28
1123.02	26
1124.13	31
1125.25	26
1126.36	27
1127.47	30
1128.58	24
1129.69	30
1130.8	24
1131.92	30
1133.03	29
1134.14	32
1135.25	29
1136.36	33
1137.47	30
1138.58	26
1139.69	22
1140.8	27
1141.91	24
1143.02	28
1144.13	26
1145.24	30
1146.35	31
1147.46	22
1148.56	28
1149.67	20
1150.78	31
1151.89	22
1153	32
1154.1	32
1155.21	34
1156.32	28
1157.43	22
1158.53	26
1159.64	28
1160.75	28
1161.85	25
1162.96	27
1164.07	30
1165.17	30
1166.28	30
1167.38	30
1168.49	30
1169.59	27
1170.7	28
1171.8	28
1172.91	25
1174.01	26
1175.12	26
1176.22	27
1177.32	29
1178.43	28
1179.53	27
1180.64	29
1181.74	24
1182.84	27
1183.94	26
1185.05	28
1186.15	33
1187.25	32
1188.35	20
1189.46	26
1190.56	30
1191.66	28
1192.76	28
1193.86	24
1194.96	29
1196.06	27.9706
1197.16	24.9808
1198.26	28.9705
1199.37	29.9047
1200.47	31.8125
1201.57	25.1814
1202.67	25.1619
1203.77	25.3388
1204.86	30.9557
1205.96	27.8917
1207.06	25.0045
1208.16	30.378
1209.26	26.9431
1210.36	31.4706
1211.46	24.8546
1212.56	28.1536
1213.65	26.5193
1214.75	27.1379
1215.85	29.1752
1216.95	33.0284
1218.04	25.2163
1219.14	29.5916
1220.24	27.677
1221.33	26.3175
1222.43	28.5678
1223.53	27.8735
1224.62	26.1637
1225.72	24.3017
1226.82	30.6071
1227.91	25.5861
1229.01	27.5049
1230.1	32.3843
1231.2	28.9205
1232.29	28.7447
1233.39	26.461
1234.48	29.12
1235.58	27.0685
1236.67	22.5498
1237.77	27.6978
1238.86	25.5886
1239.95	25.7243
1241.05	25.4214
1242.14	29.3856
1243.23	25.3799
1244.33	25.6608
1245.42	28.0728
1246.51	29.8411
1247.61	28.3055
1248.7	28.846
1249.79	27.8088
1250.88	27.3352
1251.97	27.832
1253.07	29.1785
1254.16	28.9689
1255.25	26.6621
1256.34	29.5034
1257.43	30.0092
1258.52	28.7304
1259.61	28.3869
1260.7	26.8327
1261.79	27.6275
1262.88	26.6647
1263.97	28.285
1265.06	30.1324
1266.15	29.5323
1267.24	29.6717
1268.33	27.1402
1269.42	27.3258
1270.51	28.5094
1271.6	27.0481
1272.68	30.9162
1273.77	27.3839
1274.86	25.5278
1275.95	21.7584
1277.04	26.1223
1278.12	28.7402
1279.21	29.1511
1280.3	28.5903
1281.39	25.257
1282.47	24.9787
1283.56	27.2817
1284.65	23.5627
1285.73	28.8616
1286.82	27.3599
1287.91	23.4703
1288.99	25.7897
1290.08	28.3286
1291.16	25.3472
1292.25	28.8262
1293.33	28.1276
1294.42	25.3289
1295.5	27
1296.59	26.4801
1297.67	24.4659
1298.76	26.5036
1299.84	27.9191
1300.92	30.1378
1302.01	25.9507
1303.09	25.0141
1304.17	24.3075
1305.26	27.5252
1306.34	33.4389
1307.34	27
1308.43	26
1309.52	27
1310.61	22
1311.7	28
1312.78	26
1313.87	25
1314.96	25
1316.04	26
1317.13	30
1318.22	27
1319.3	24
1320.39	26
1321.48	29
1322.56	26
1323.65	26
1324.73	21
1325.82	29
1326.9	26
1327.99	31
1329.07	30
1330.16	29
1331.24	20
1332.33	27
1333.41	27
1334.5	25
1335.58	27
1336.66	27
1337.75	30
1338.83	22
1339.91	28
1341	30
1342.08	32
1343.16	22
1344.24	29
1345.33	28
1346.41	30
1347.49	28
1348.57	32
1349.65	26
1350.74	22
1351.82	26
1352.9	27
1353.98	28
1355.06	33
1356.14	30
1357.22	30
1358.3	26
1359.38	30
1360.46	26
1361.54	28
1362.62	28
1363.7	30
1364.78	26
1365.86	22
1366.94	31
1368.02	28
1369.09	30
1370.17	27
1371.25	28
1372.33	32
1373.41	20
1374.48	26
1375.56	29
1376.64	28
1377.72	33
1378.79	28
1379.87	29
1380.95	33
1382.02	30
1383.1	30
1384.17	28
1385.25	29
1386.33	31
1387.4	33
1388.48	27
1389.55	28
1390.63	34
1391.7	30
1392.78	35
1393.85	30
1394.93	22
1396	28
1397.07	34
1398.15	24
1399.22	32
1400.3	24
1401.37	31
1402.44	32
1403.52	26
1404.59	32
1405.66	33
1406.73	28
1407.81	31
1408.88	37
1409.95	32
1411.02	36
1412.09	34
1413.17	30
1414.24	34
1415.31	36
1416.38	34
1417.45	32
1418.52	30
1419.59	30
1420.66	34
1421.73	28
1422.8	26
1423.87	29
1424.94	26
1426.01	31
1427.08	31
1428.15	28
1429.22	29
1430.29	29
1431.35	29
1432.42	30
1433.49	24
1434.56	34
1435.63	28
1436.69	26
1437.76	30
1438.83	29
1439.9	31
1440.96	26
1442.03	28
1443.1	30
1444.17	26
1445.23	26
1446.3	29
1447.36	26
1448.43	30
1449.49	24
1450.56	30
1451.63	34
1452.69	29
1453.76	27
1454.82	28
1455.89	25
1456.95	35
1458.01	30
1459.08	31
1460.14	25
1461.21	28
1462.27	26
1463.34	28
1464.4	22
1465.46	30
1466.52	26
1467.59	26
1468.65	28
1469.71	30
1470.77	28
1471.84	28
1472.9	26
1473.96	30
1475.02	30
1476.08	24
1477.15	29
1478.21	28
1479.27	24
1480.33	28
1481.39	28
1482.45	30
1483.51	22
1484.57	30
1485.63	29
1486.69	29
1487.75	30
1488.81	25
1489.87	32
1490.93	28
1491.99	29
1493.05	26
1494.1	28
1495.16	26
1496.22	33
1497.28	31
1498.34	31
1499.4	27
1500.45	26
1501.51	26
1502.57	29
1503.63	25
1504.68	26
1505.74	27
1506.8	33
1507.85	28
1508.91	28
1509.97	30
1511.02	24
1512.08	26
1513.13	31
1514.19	31
1515.24	22
1516.3	24
1517.35	29
1518.41	26
1519.46	29
1520.52	31
1521.57	29
1522.63	26
1523.68	29
1524.73	22
1525.79	30
1526.84	27
1527.9	28
1528.95	31
1530	32
1531.05	29
1532.11	28
1533.16	24
1534.21	29
1535.26	26
1536.32	31
1537.37	30
1538.42	35
1539.47	27
1540.52	30
1541.57	28
1542.63	27
1543.68	26
1544.73	30
1545.78	30
1546.83	30
1547.88	29
1548.93	24
1549.98	33
1551.03	26
1552.08	30
1553.13	26
1554.18	28
1555.23	32
1556.27	25
1557.32	30
1558.37	30
1559.42	32
1560.47	29
1561.52	28
1562.56	30
1563.61	30
1564.66	28
1565.71	28
1566.75	29
1567.8	29
1568.85	31
1569.9	31
1570.94	30
1571.99	24
1573.03	28
1574.08	27
1575.13	24
1576.17	27
1577.22	24
1578.26	28
1579.31	24
1580.35	24
1581.4	31
1582.44	29
1583.49	25
1584.53	26
1585.58	26
1586.62	26
1587.66	26
1588.71	28
1589.75	27
1590.8	30
1591.84	29
1592.88	29
1593.92	27
1594.97	28
1596.01	27
1597.05	35
1598.1	26
1599.14	28
1600.18	28
1601.22	29
1602.26	30
1603.3	31
1604.35	28
1605.39	28
1606.43	22
1607.47	24
1608.51	30
1609.55	24
1610.59	30
1611.63	27
1612.67	26
1613.71	22
1614.75	30
1615.79	31
1616.83	26
1617.87	28
1618.91	24
1619.95	28
1620.99	33
1622.02	30
1623.06	29
1624.1	30
1625.14	28
1626.18	31
1627.21	24
1628.25	26
1629.29	26
1630.33	24
1631.36	26
1632.4	24
1633.44	21
1634.48	31
1635.51	26
1636.55	31
1637.58	32
1638.62	33
1639.66	24
1640.69	26
1641.73	28
1642.76	28
1643.8	26
1644.83	31
1645.87	29
1646.9	33
1647.94	28
1648.97	24
1650	26
1651.04	30
1652.07	27
1653.11	27
1654.14	26
1655.17	29
1656.21	28
1657.24	31
1658.27	26
1659.31	28
1660.34	29
1661.37	26
1662.4	29
1663.43	30
1664.47	29
1665.5	26
1666.53	29
1667.56	30
1668.59	30
1669.62	23
1670.66	24
1671.69	28
1672.72	28
1673.75	30
1674.78	32
1675.81	28
1676.84	28
1677.87	27
1678.9	24
1679.93	26
1680.96	24
1681.98	26
1683.01	28
1684.04	25
1685.07	30
1686.1	27
1687.13	28
1688.16	28
1689.18	28
1690.21	30
1691.24	28
1692.27	30
1693.3	28
1694.32	33
1695.35	27
1696.38	28
1697.4	28
1698.43	33
1699.46	28
1700.48	29
1701.51	26
1702.54	26
1703.56	22
1704.59	27
1705.61	24
1706.64	26
1707.66	27
1708.69	32
1709.71	30
1710.74	29
1711.76	25
1712.79	26
1713.81	26
1714.83	28
1715.86	30
1716.88	28
1717.91	31
1718.93	35
1719.95	28
1720.98	28
1722	34
1723.02	28
1724.04	27
1725.07	32
1726.09	26
1727.11	28
1728.13	31
1729.15	32
1730.18	26
1731.2	28
1732.22	32
1733.24	27
1734.26	30
1735.28	29
1736.3	30
1737.32	30
1738.34	24
1739.36	29
1740.38	26
1741.4	24
1742.42	24
1743.44	26
1744.46	28
1745.48	32
1746.5	28
1747.52	31
1748.54	24
1749.56	28
1750.58	23
1751.6	31
1752.61	29
1753.63	30
1754.65	27
1755.67	34
1756.68	29
1757.7	26
1758.72	28
1759.74	32
1760.75	26
1761.77	28
1762.79	32
1763.8	27
1764.82	28
1765.83	24
1766.85	28
1767.87	26
1768.88	24
1769.9	29
1770.91	29
1771.93	29
1772.94	31
1773.96	25
1774.97	24
1775.99	31
1777	30
1778.02	28
1779.03	26
1780.04	30
1781.06	30
1782.07	26
1783.09	26
1784.1	27
1785.11	28
1786.13	29
1787.14	28
1788.15	26
1789.16	22
1790.18	29
1791.19	27
1792.2	34
1793.21	22
1794.22	21
1795.23	27
1796.25	25
1797.26	30
1798.27	30
1799.28	29
1800.29	30
1801.3	30
1802.31	30
1803.32	28
1804.33	32
1805.34	34
1806.35	28
1807.36	30
1808.37	30
1809.38	27
1810.39	29
1811.4	27
1812.41	28
1813.42	29
1814.42	23
1815.43	30
1816.44	30
1817.45	29
1818.46	33
1819.47	32
1820.47	34
1821.48	27
1822.49	29
1823.49	24
1824.5	29
1825.51	22
1826.52	22
1827.52	30
1828.53	25
1829.53	27
1830.54	29
1831.55	22
1832.55	29
1833.56	34
1834.56	33
1835.57	28
1836.57	22
1837.58	29
1838.58	31
1839.59	30
1840.59	28
1841.6	28
1842.6	30
1843.61	31
1844.61	26
1845.61	23
1846.62	24
1847.62	28
1848.62	28
1849.63	28
1850.63	25
1851.63	27
1852.64	28
1853.64	27
1854.64	27
1855.64	28
1856.64	31
1857.65	31
1858.65	26
1859.65	22
1860.65	29
1861.65	30
1862.65	20
1863.65	28
1864.66	27
1865.66	28
1866.66	28
1867.66	26
1868.66	26
1869.66	24
1870.66	30
1871.66	26
1872.66	32
1873.66	22
1874.66	24
1875.65	27
1876.65	32
1877.65	30
1878.65	26
1879.65	22
1880.65	30
1881.65	26
1882.64	28
1883.64	32
1884.64	34
1885.64	27
1886.63	32
1887.63	29
1888.63	26
1889.63	32
1890.62	28
1891.62	27
1892.62	27
1893.61	22
1894.61	26
1895.6	28
1896.6	25
1897.6	24
1898.59	33
1899.59	22
1900.58	28
1901.58	26
1902.57	28
1903.57	25
1904.56	26
1905.56	26
1906.55	29
1907.54	28
1908.54	31
1909.53	28
1910.53	31
1911.52	28
1912.51	25
1913.51	26
1914.5	27
1915.49	32
1916.49	24
1917.48	29
1918.47	30
1919.46	24
1920.46	27
1921.45	24
1922.44	31
1923.43	27
1924.42	26
1925.41	23
1926.41	28
1927.4	24
1928.39	31
1929.38	27
1930.37	30
1931.36	28
1932.35	27
1933.34	28
1934.33	26
1935.32	30
1936.31	30
1937.3	26
1938.29	29
1939.28	27
1940.27	27
1941.26	27
1942.24	27
1943.23	26
1944.22	28
1945.21	28
1946.2	26
1947.19	32
1948.17	29
1949.16	26
1950.15	27
1951.14	28
1952.12	24
1953.11	26
1954.1	23
1955.09	26
1956.07	24
1957.06	28
1958.05	27
1959.03	26
1960.02	35
1961	30
1961.99	26
1962.98	26
1963.96	32
1964.95	25
1965.93	27
1966.92	28
1967.9	24
1968.89	28
1969.87	28
1970.85	18
1971.84	27
1972.82	30
1973.81	27
1974.79	28
1975.78	29
1976.76	32
1977.74	30
1978.73	24
1979.71	28
1980.69	27
1981.67	26
1982.66	27
1983.64	26
1984.62	28
1985.6	26
1986.59	30
1987.57	22
1988.55	26
1989.53	28
1990.51	30
1991.49	27
1992.47	26
1993.45	29
1994.44	20
1995.42	26
1996.4	30
1997.38	28
1998.36	24
1999.34	25
2000.32	29
2001.3	26
2002.28	27
2003.26	32
2004.24	29
2005.22	24
2006.19	29
2007.17	27
2008.15	26
2009.13	28
2010.11	26
2011.09	27
2012.06	28
2013.04	27
2014.02	25
2015	25
2015.98	28
2016.95	25
2017.93	24
2018.91	26
2019.88	25
2020.86	26
2021.84	24
2022.81	30
2023.79	27
2024.77	27
2025.74	28
2026.72	27
2027.69	26
2028.67	32
2029.65	25
2030.62	20
2031.6	29
2032.57	26
2033.55	30
2034.52	27
2035.5	24
2036.47	26
2037.44	23
2038.42	30
2039.39	26
2040.36	30
2041.34	26
2042.31	26
2043.29	22
2044.26	33
2045.23	28
2046.2	28
2047.18	29
2048.15	24
2049.12	31
2050.09	24
2051.07	27
2052.04	22
2053.01	28
2053.98	26
2054.95	24
2055.93	27
2056.9	22
2057.87	25
2058.84	31
2059.81	28
2060.78	26
2061.75	26
2062.72	23
2063.69	23
2064.66	26
2065.63	22
2066.6	26
2067.57	29
2068.54	29
2069.51	30
2070.48	26
2071.45	30
2072.42	30
2073.38	34
2074.35	24
2075.32	24
2076.29	26
2077.26	29
2078.23	27
2079.19	26
2080.16	27
2081.13	25
2082.1	30
2083.06	26
2084.03	29
2085	27
2085.96	28
2086.93	28
2087.9	23
2088.86	26
2089.83	28
2090.8	24
2091.76	25
2092.73	24
2093.69	24
2094.66	33
2095.62	24
2096.59	31
2097.55	22
2098.52	26
2099.48	27
2100.45	18
2101.41	26
2102.38	30
2103.34	30
2104.31	29
2105.27	29
2106.23	29
2107.2	30
2108.16	20
2109.12	24
2110.09	27
2111.05	29
2112.01	28
2112.98	32
2113.94	26
2114.9	30
2115.86	30
2116.82	22
2117.79	24
2118.75	29
2119.71	26
2120.67	30
2121.63	26
2122.59	32
2123.55	27
2124.52	24
2125.48	26
2126.44	28
2127.4	22
2128.36	28
2129.32	20
2130.28	27
2131.24	29
2132.2	27
2133.16	26
2134.12	26
2135.08	28
2136.04	24
2136.99	28
2137.95	25
2138.91	27
2139.87	22
2140.83	26
2141.79	30
2142.75	29
2143.7	26
2144.66	31
2145.62	29.9746
2146.58	24.9746
2147.53	27.9489
2148.49	25.9741
2149.45	26.0815
2150.41	26
2151.36	30.6772
2152.32	27.7883
2153.27	26.9954
2154.23	25.0834
2155.19	24
2156.14	24.8966
2157.1	22.4992
2158.06	28.0041
2159.01	26.408
2159.97	20.6014
2160.92	27.0468
2161.88	23.19
2162.83	28.7293
2163.79	26.8529
2164.74	23.598
2165.7	26.1549
2166.65	23.9969
2167.61	28.6176
2168.56	29.4957
2169.51	26.5444
2170.47	24.7224
2171.42	27.652
2172.38	24.9075
2173.33	24.5209
2174.28	26.8482
2175.24	26.747
2176.19	27.6606
2177.14	22.7257
2178.09	23.3025
2179.05	25.6574
2180	26.05
2180.95	27.6963
2181.9	25.3175
2182.86	25.3932
2183.81	24.8778
2184.76	27.1863
2185.71	30.1751
2186.66	24.5589
2187.61	26.2002
2188.57	21.1208
2189.52	25.2031
2190.47	23.4654
2191.42	21.7624
2192.37	28.7354
2193.32	26.9031
2194.27	28.577
2195.22	22.7412
2196.17	25.7145
2197.12	27.8789
2198.07	27.2202
2199.02	29.9197
2199.97	28.4176
2200.92	25.1593
2201.87	24.8125
2202.82	25.4677
2203.76	26.5372
2204.71	29.2588
2205.66	28.0737
2206.61	27
2207.56	25.4348
2208.51	24.3105
2209.45	25.1769
2210.4	27.3471
2211.35	26.5201
2212.3	25.7968
2213.24	25.9799
2214.19	25.2678
2215.14	25.081
2216.09	27.5785
2217.03	26.0948
2217.98	24.5325
2218.93	25.8298
2219.87	25.848
2220.82	26.2389
2221.77	25.4558
2222.71	25.402
2223.66	23.5207
2224.6	26.119
2225.55	26.1696
2226.49	27.7759
2227.44	29.5441
2228.38	28.7298
2229.33	30.0201
2230.27	28.374
2231.22	23.8531
2232.16	25.7038
2233.11	28.578
2234.05	26.4162
2235	24.5701
2235.94	25.6999
2236.88	25.265
2237.83	24.2941
2238.77	23.9314
2239.71	27.4739
2240.66	28.2278
2241.6	27.5765
2242	28
2242.95	22
2243.9	30
2244.84	24
2245.79	25
2246.74	27
2247.69	25
2248.63	28
2249.58	22
2250.53	23
2251.47	22
2252.42	26
2253.37	27
2254.31	26
2255.26	29
2256.2	25
2257.15	27
2258.1	26
2259.04	28
2259.99	24
2260.93	28
2261.88	27
2262.82	26
2263.77	28
2264.71	24
2265.65	22
2266.6	24
2267.54	29
2268.49	27
2269.43	29
2270.38	30
2271.32	30
2272.26	22
2273.21	28
2274.15	20
2275.09	24
2276.04	30
2276.98	25
2277.92	25
2278.86	25
2279.81	30
2280.75	25
2281.69	28
2282.63	26
2283.57	20
2284.52	25
2285.46	26
2286.4	22
2287.34	29
2288.28	18
2289.22	26
2290.16	22
2291.1	29
2292.04	26
2292.98	29
2293.93	30
2294.86	25
2295.8	25
2296.74	26
2297.69	26
2298.62	28
2299.56	25
2300.5	24
2301.44	28
2302.38	30
2303.32	26
2304.26	25
2305.2	29
2306.14	26
2307.07	31
2308.01	26
2308.95	28
2309.89	26
2310.83	26
2311.76	22
2312.7	25
2313.64	24
2314.58	26
2315.51	26
2316.45	29
2317.39	22
2318.32	29
2319.26	16
2320.2	30
2321.13	26
2322.07	28
2323	28
2323.94	24
2324.88	30
2325.81	23
2326.75	24
2327.68	24
2328.62	28
2329.55	33
2330.49	28
2331.42	28
2332.36	25
2333.29	27
2334.22	30
2335.16	26
2336.09	27
2337.03	27
2337.96	33
2338.89	26
2339.83	28
2340.76	24
2341.69	26
2342.63	26
2343.56	28
2344.49	30
2345.43	24
2346.36	28
2347.29	26
2348.22	25
2349.15	25
2350.09	28
2351.02	24
2351.95	25
2352.88	28
2353.81	23
2354.74	24
2355.67	23
2356.61	30
2357.54	27
2358.47	27
2359.4	27
2360.33	27
2361.26	32
2362.19	22
2363.12	25
2364.05	24
2364.98	26
2365.91	29
2366.84	31
2367.77	24
2368.7	27
2369.62	26
2370.55	24
2371.48	24
2372.41	31
2373.34	24
2374.27	26
2375.2	28
2376.12	29
2377.05	22
2377.98	21
2378.91	28
2379.83	26
2380.76	25
2381.69	28
2382.62	30
2383.54	24
2384.47	24
2385.4	25
2386.32	27
2387.25	20
2388.18	28
2389.1	28
2390.03	30
2390.95	28
2391.88	34
2392.81	28
2393.73	26
2394.66	26
2395.58	30
2396.51	27
2397.43	29
2398.36	26
2399.28	24
2400.2	24
2401.13	25
2402.05	24
2402.98	30
2403.9	22
2404.83	27
2405.75	30
2406.67	23
2407.6	26
2408.52	28
2409.44	30
2410.37	30
2411.29	26
2412.21	26
2413.13	30
2414.06	26
2414.98	22
2415.9	28
2416.82	24
2417.74	30
2418.67	27
2419.59	21
2420.51	27
2421.43	24
2422.35	28
2423.27	27
2424.19	27
2425.11	24
2426.03	28
2426.96	26
2427.88	30
2428.8	26
2429.72	25
2430.64	29
2431.56	31
2432.48	29
2433.39	27
2434.31	24
2435.23	31
2436.15	30
2437.07	24
2437.99	28
2438.91	29
2439.83	28
2440.75	28
2441.67	28
2442.58	30
2443.5	22
2444.42	28
2445.34	27
2446.26	30
2447.17	29
2448.09	26
2449.01	18
2449.92	24
2450.84	26
2451.76	27
2452.68	27
2453.59	26
2454.51	24
2455.42	28
2456.34	31
2457.26	25
2458.17	28
2459.09	26
2460	27
2460.92	28
2461.83	28
2462.75	24
2463.66	31
2464.58	26
2465.49	30
2466.41	30
2467.32	28
2468.24	26
2469.15	30
2470.07	22
2470.98	27
2471.89	25
2472.81	24
2473.72	24
2474.64	27
2475.55	28
2476.46	24
2477.37	30
2478.29	24
2479.2	28
2480.11	25
2481.03	31
2481.94	30
2482.85	28
2483.76	30
2484.67	27
2485.59	29
2486.5	30
2487.41	30
2488.32	32
2489.23	26
2490.14	28
2491.05	26
2491.97	28
2492.88	28
2493.79	30
2494.7	24
2495.61	28
2496.52	27
2497.43	27
2498.34	24
2499.25	30
2500.16	24
2501.07	26
2501.98	22
2502.89	16
2503.79	28
2504.7	27
2505.61	28
2506.52	27
2507.43	28
2508.34	26
2509.25	29
2510.16	26
2511.06	24
2511.97	20
2512.88	26
2513.79	24
2514.69	34
2515.6	26
2516.51	30
2517.42	27
2518.32	25
2519.23	34
2520.14	26
2521.04	28
2521.95	27
2522.86	28
2523.76	24
2524.67	27
2525.57	25
2526.48	27
2527.39	32
2528.29	28
2529.2	28
2530.1	26
2531.01	26
2531.91	25
2532.82	28
2533.72	28
2534.63	29
2535.53	30
2536.44	24
2537.34	28
2538.24	30
2539.15	31
2540.05	32
2540.96	28
2541.86	24
2542.76	30
2543.67	28
2544.57	28
2545.47	28
2546.37	27
2547.28	26
2548.18	30
2549.08	22
2549.99	26
2550.89	28
2551.79	30
2552.69	26
2553.59	32
2554.49	24
2555.4	28
2556.3	26
2557.2	27
2558.1	28
2559	28
2559.9	22
2560.8	34
2561.7	28
2562.6	24
2563.5	26
2564.4	30
2565.3	24
2566.2	29
2567.1	24
2568	26
2568.9	24
2569.8	30
2570.7	30
2571.6	29
2572.5	30
2573.4	31
2574.3	22
2575.2	28
2576.1	22
2576.99	27
2577.89	24
2578.79	27
2579.69	30
2580.59	28
2581.48	26
2582.38	24
2583.28	28
2584.18	31
2585.07	22
2585.97	26
2586.87	20
2587.76	28
2588.66	28
2589.56	26
2590.45	30
2591.35	24
2592.25	25
2593.14	24
2594.04	24
2594.93	28
2595.83	22
2596.73	27
2597.62	26
2598.52	27
2599.41	28
2600.31	30
2601.2	26
2602.1	30
2602.99	32
2603.88	27
2604.78	30
2605.67	27
2606.57	29
2607.46	26
2608.35	24
2609.25	28
2610.14	31
2611.03	30
2611.93	25
2612.82	27
2613.71	27
2614.61	26
2615.5	26
2616.39	30
2617.29	25
2618.18	24
2619.07	30
2619.96	28
2620.85	21
2621.75	24
2622.64	28
2623.53	29
2624.42	30
2625.31	31
2626.2	31
2627.09	29
2627.98	26
2628.88	24
2629.77	24
2630.66	26
2631.55	25
2632.44	24
2633.33	25
2634.22	28
2635.11	30
2636	30
2636.89	24
2637.78	24
2638.66	32
2639.55	26
2640.44	26
2641.33	27
2642.22	30
2643.11	22
2644	29
2644.89	22
2645.78	29
2646.66	28
2647.55	28
2648.44	24
2649.33	28
2650.21	29
2651.1	28
2651.99	26
2652.88	28
2653.76	26
2654.65	24
2655.54	27
2656.42	28
2657.31	26
2658.2	26
2659.08	26
2659.97	34
2660.86	26
2661.74	29
2662.63	24
2663.51	32
2664.4	29
2665.29	26
2666.17	26
2667.06	26
2667.94	30
2668.83	24
2669.71	24
2670.6	29
2671.48	28
2672.36	25
2673.25	28
2674.13	26
2675.02	28
2675.9	27
2676.78	27
2677.67	28
2678.55	25
2679.43	26
2680.32	22
2681.2	27
2682.08	27
2682.97	32
2683.85	26
2684.73	27
2685.61	26
2686.5	28
2687.38	31
2688.26	29
2689.14	28
2690.03	26
2690.91	24
2691.79	29
2692.67	26
2693.55	28
2694.43	25
2695.31	28
2696.19	28
2697.08	28
2697.96	26
2698.84	31
2699.72	26
2700.6	24
2701.48	25
2702.36	26
2703.24	25
2704.12	27
2705	24
2705.88	26
2706.76	26
2707.64	26
2708.51	32
2709.39	29
2710.27	27
2711.15	24
2712.03	30
2712.91	25
2713.79	31
2714.67	30
2715.54	25
2716.42	28
2717.3	23
2718.18	27
2719.05	28
2719.93	27
2720.81	28
2721.69	28
2722.56	32
2723.44	28
2724.32	27
2725.19	32
2726.07	29
2726.95	25
2727.82	28
2728.7	25
2729.58	24
2730.45	24
2731.33	32
2732.2	29
2733.08	30
2733.95	28
2734.83	27
2735.7	35
2736.58	27
2737.45	25
2738.33	29
2739.2	30
2740.08	29
2740.95	25
2741.83	30
2742.7	26
2743.58	29
2744.45	28
2745.32	25
2746.2	30
2747.07	24
2747.94	32
2748.82	33
2749.69	24
2750.56	25
2751.44	29
2752.31	26
2753.18	24
2754.05	27
2754.93	26
2755.8	26
2756.67	31
2757.54	33
2758.42	29
2759.29	25
2760.16	28
2761.03	26
2761.9	26
2762.77	28
2763.64	29
2764.51	30
2765.38	27
2766.26	32
2767.13	28
2768	22
2768.87	28
2769.74	24
2770.61	28
2771.48	30
2772.35	30
2773.22	25
2774.09	28
2774.96	27
2775.83	32
2776.7	24
2777.56	26
2778.43	31
2779.3	24
2780.17	28
2781.04	26
2781.91	30
2782.78	24
2783.64	27
2784.51	28
2785.38	27
2786.25	26
2787.12	26
2787.98	27
2788.85	24
2789.72	29
2790.59	28
2791.45	28
2792.32	30
2793.19	28
2794.05	31
2794.92	26
2795.79	24
2796.65	29
2797.52	22
2798.38	32
2799.25	29
2800.12	22
2800.98	30
2801.85	30
2802.71	35
2803.58	31
2804.44	26
2805.31	34
2806.17	24
2807.04	26
2807.9	24
2808.77	26
2809.63	30
2810.5	31
2811.36	32
2812.22	29
2813.09	28
2813.95	26
2814.82	26
2815.68	26
2816.54	27
2817.41	32
2818.27	24
2819.13	28
2820	28
2820.86	29
2821.72	30
2822.58	32
2823.45	28
2824.31	30
2825.17	29
2826.03	28
2826.9	27
2827.76	26
2828.62	30
2829.48	26
2830.34	32
2831.2	28
2832.06	32
2832.92	29
2833.79	28
2834.65	30
2835.51	28
2836.37	30
2837.23	27
2838.09	31
2838.95	27
2839.81	28
2840.67	29
2841.53	22
2842.39	30
2843.25	28
2844.11	27
2844.97	24
2845.83	29
2846.68	26
2847.54	30
2848.4	26
2849.26	27
2850.12	30
2850.98	27
2851.84	28
2852.69	34
2853.55	29
2854.41	26
2855.27	32
2856.13	26
2856.98	26
2857.84	22
2858.7	26
2859.56	24
2860.41	29
2861.27	26
2862.13	27
2862.98	24
2863.84	26
2864.7	26
2865.55	32
2866.41	29
2867.27	32
2868.12	32
2868.98	29
2869.83	34
2870.69	34
2871.54	28
2872.4	33
2873.25	31
2874.11	30
2874.96	30
2875.82	33
2876.68	32
2877.53	31
2878.38	28
2879.24	28
2880.09	35
2880.95	34
2881.8	34
2882.65	30
2883.51	33
2884.36	35
2885.22	33
2886.07	36
2886.92	32
2887.77	39
2888.63	34
2889.48	41
2890.33	38
2891.19	34
2892.04	36
2892.89	41
2893.74	40
2894.6	42
2895.45	38
2896.3	46
2897.15	50
2898	45
2898.85	50
2899.71	50
2900.56	56
2901.41	63
2902.26	54
2903.11	58
2903.96	64
2904.81	59
2905.66	65
2906.51	68
2907.36	54
2908.21	64
2909.06	62
2909.91	56
2910.76	62
2911.61	50
2912.46	48
2913.31	48
2914.16	49
2915.01	44
2915.86	44
2916.71	44
2917.56	39
2918.41	45
2919.26	37
2920.1	38
2920.95	32
2921.8	32
2922.65	33
2923.5	32
2924.34	32
2925.19	34
2926.04	28
2926.89	28
2927.74	26
2928.58	28
2929.43	32
2930.28	30
2931.12	31
2931.97	34
2932.82	28
2933.66	30
2934.51	30
2935.36	30
2936.2	30
2937.05	30
2937.89	26
2938.74	30
2939.59	28
2940.43	31
2941.28	27
2942.12	24
2942.97	28
2943.81	34
2944.66	31
2945.5	30
2946.35	34
2947.19	31
2948.04	34
2948.88	28
2949.72	30
2950.57	30
2951.41	37
2952.26	29
2953.1	28
2953.94	24
2954.79	37
2955.63	34
2956.47	34
2957.32	38
2958.16	32
2959	40
2959.85	35
2960.69	36
2961.53	40
2962.37	41
2963.22	40
2964.06	41
2964.9	47
2965.74	39
2966.58	32
2967.42	40
2968.27	32
2969.11	38
2969.95	34
2970.79	37
2971.63	40
2972.47	38
2973.31	40
2974.15	38
2974.99	32
2975.83	34
2976.68	36
2977.52	32
2978.36	34
2979.2	34
2980.04	31
2980.88	29
2981.71	32
2982.55	32
2983.39	28
2984.23	28
2985.07	30
2985.91	32
2986.75	26
2987.59	27
2988.43	24
2989.27	30
2990.1	28
2990.94	26
2991.78	24
2992.62	30
2993.46	30
2994.3	26
2995.13	30
2995.97	28
2996.81	28
2997.64	29
2998.48	31
2999.32	30
