#Acq. time (s)=	3
#Accumulations=	3
#Range (cm-¹)=	100...3000
#Windows=	3
#Autofocus=	Off
#AutoExposure=	Off
#Spike filter=	Multiple accum.
#Delay time (s)=	0
#Binning=	1
#Readout mode=	Signal
#DeNoise=	Off
#ICS correction=	Off
#Dark correction=	Off
#Inst. Process=	Off
#Instrument=	LabRAM HR Evol
#Detector=	Syncerity OE
#Objective=	x100_VIS_LWD
#Grating=	600 (500nm)
#ND Filter=	25%
#Laser=	633nm_Edge
#Hole=	100.021
#Range=	Visible
#Project=	Bolus
#Sample=	A5
#Site=	stripside
#Title=	m06
#Remark=	
#Date=	03.11.2025 16:24
#Acquired=	03.11.2025 16:24:57
100.969	31
102.252	33
103.535	36
104.818	31
106.101	35
107.384	36
108.666	36
109.948	32
111.232	30
112.514	30
113.795	33
115.077	27
116.358	36
117.639	38
118.919	30
120.2	34
121.48	36
122.76	31
124.04	40
125.32	34
126.599	39
127.879	35
129.158	36
130.436	32
131.715	36
132.992	36
134.27	30
135.548	34
136.826	35
138.104	36
139.381	40
140.658	34
141.935	33
143.212	32
144.489	39
145.763	42
147.04	42
148.315	44
149.591	40
150.867	43
152.142	41
153.416	42
154.691	44
155.965	38
157.24	38
158.514	46
159.786	41
161.06	40
162.334	44
163.607	44
164.881	38
166.152	39
167.425	45
168.698	40
169.969	39
171.241	39
172.513	36
173.785	41
175.055	43
176.326	42
177.597	45
178.867	43
180.137	40
181.408	42
182.677	43
183.947	44
185.217	47
186.485	45
187.755	46
189.022	41
190.291	43
191.56	42
192.828	36
194.096	45
195.363	41
196.631	42
197.899	42
199.165	40
200.432	38
201.698	40
202.965	42
204.23	43
205.497	36
206.762	39
208.028	40
209.293	37
210.559	36
211.823	41
213.088	42
214.352	38
215.617	34
216.88	42
218.145	34
219.408	41
220.672	33
221.934	35
223.196	36
224.46	34
225.722	38
226.985	34
228.246	30
229.508	34
230.77	37
232.031	39
233.292	39
234.554	37
235.814	37
237.074	34
238.335	36
239.595	36
240.854	32
242.115	35
243.374	28
244.633	35
245.893	35
247.151	34
248.409	36
249.667	35
250.927	36
252.184	38
253.442	37
254.699	33
255.957	36
257.214	32
258.47	32
259.727	31
260.983	33
262.24	30
263.496	32
264.752	37
266.007	40
267.262	32
268.517	32
269.773	36
271.028	35
272.282	32
273.536	31
274.79	30
276.044	39
277.297	27
278.551	32
279.804	37
281.057	36
282.31	36
283.564	30
284.816	32
286.068	40
287.32	32
288.572	31
289.823	28
291.074	37
292.325	29
293.576	35
294.827	39
296.077	30
297.328	35
298.578	36
299.828	35
301.077	37
302.325	37
303.575	39
304.824	34
306.073	26
307.321	35
308.57	33
309.818	31
311.066	34
312.314	30
313.562	34
314.808	32
316.055	35
317.302	30
318.549	35
319.796	33
321.042	34
322.288	39
323.533	37
324.779	35
326.024	35
327.27	36
328.515	39
329.759	36
331.004	32
332.248	33
333.493	36
334.736	37
335.98	36
337.223	39
338.466	35
339.709	32
340.952	37
342.195	36
343.437	36
344.68	32
345.922	32
347.163	37
348.405	33
349.647	33
350.887	35
352.128	32
353.37	40
354.609	38
355.85	36
357.089	40
358.33	37
359.57	32
360.809	30
362.049	34
363.287	35
364.526	35
365.764	29
367.003	36
368.241	40
369.479	34
370.718	32
371.955	45
373.193	35
374.429	42
375.667	36
376.903	35
378.139	35
379.376	37
380.611	37
381.848	34
383.083	35
384.319	32
385.554	37
386.79	30
388.024	37
389.258	33
390.493	36
391.727	34
392.962	30
394.195	35
395.428	40
396.663	37
397.895	38
399.128	32
400.361	33
401.593	42
402.825	39
404.058	29
405.29	37
406.521	34
407.752	39
408.985	32
410.215	37
411.446	39
412.678	37
413.908	38
415.138	35
416.367	33
417.597	35
418.828	36
420.057	34
421.286	35
422.514	40
423.743	41
424.973	36
426.201	33
427.429	37
428.657	36
429.884	28
431.112	39
432.34	39
433.567	36
434.794	36
436.02	36
437.247	39
438.473	38
439.699	46
440.925	38
442.15	43
443.376	45
444.601	37
445.826	38
447.051	38
448.275	37
449.5	34
450.724	36
451.948	39
453.172	42
454.396	39
455.619	41
456.842	36
458.065	35
459.288	35
460.511	38
461.733	41
462.956	41
464.178	42
465.4	41
466.621	40
467.843	44
469.064	43
470.285	43
471.505	43
472.726	44
473.946	46
475.166	53
476.387	45
477.606	49
478.825	52
480.044	54
481.264	58
482.483	63
483.702	63
484.921	60
486.138	59
487.356	69
488.574	66
489.792	66
491.009	66
492.226	62
493.444	58
494.661	67
495.877	62
497.094	69
498.31	56
499.525	52
500.741	53
501.958	47
503.172	51
504.388	54
505.603	52
506.817	53
508.032	57
509.247	52
510.46	48
511.675	48
512.888	41
514.102	42
515.316	43
516.528	44
517.742	43
518.954	48
520.167	48
521.378	45
522.591	39
523.802	46
525.015	44
526.226	42
527.438	54
528.648	41
529.86	40
531.07	49
532.281	55
533.491	44
534.702	47
535.911	50
537.121	40
538.33	47
539.54	47
540.749	43
541.957	45
543.167	43
544.375	41
545.584	45
546.791	44
547.999	47
549.207	47
550.414	42
551.621	44
552.829	46
554.035	42
555.241	42
556.449	41
557.655	47
558.86	51
560.066	50
561.272	48
562.477	43
563.682	47
564.888	45
566.093	43
567.297	47
568.501	47
569.705	50
570.91	47
572.114	48
573.317	44
574.52	46
575.723	44
576.927	48
578.13	47
579.332	44
580.535	47
581.737	44
582.938	51
584.14	50
585.343	50
586.544	44
587.745	48
588.946	43
590.147	47
591.347	47
592.548	49
593.748	48
594.948	44
596.147	48
597.347	49
598.546	50
599.745	48
600.944	48
602.143	54
603.342	49
604.54	51
605.738	46
606.937	45
608.134	59
609.332	44
610.529	48
611.727	49
612.924	51
614.121	46
615.317	51
616.513	54
617.709	51
618.905	48
620.101	46
621.297	53
622.492	58
623.688	46
624.883	53
626.077	51
627.271	45
628.466	49
629.66	53
630.855	51
632.047	48
633.241	52
634.435	47
635.629	39
636.82	48
638.014	45
639.207	49
640.399	51
641.59	52
642.783	54
643.975	50
645.166	51
646.357	48
647.549	57
648.741	54
649.93	57
651.122	58
652.311	52
653.502	54
654.692	52
655.881	52
657.071	58
658.261	55
659.45	56
660.639	60
661.827	51
663.016	48
664.204	57
665.393	50
666.581	59
667.769	46
668.957	64
670.143	50
671.331	53
672.518	54
673.705	52
674.891	55
676.078	53
677.264	61
678.451	54
679.636	59
680.821	51
682.007	59
683.192	59
684.378	64
685.562	55
686.747	64
687.931	56
689.115	52
690.3	62
691.483	58
692.666	54
693.851	56
695.034	60
696.216	59
697.4	65
698.582	58
699.764	59
700.948	61
702.129	63
703.311	71
704.493	66
705.674	73
706.855	62
708.036	78
709.218	70
710.399	74
711.579	72
712.759	69
713.939	61
715.12	68
716.299	60
717.478	53
718.657	57
719.836	53
721.015	52
722.195	52
723.373	59
724.552	51
725.729	56
726.907	51
728.085	54
729.262	55
730.44	55
731.617	54
732.795	55
733.972	49
735.148	56
736.324	48
737.501	56
738.677	52
739.852	52
741.028	51
742.203	55
743.379	53
744.554	47
745.729	51
746.903	52
748.078	48
749.252	54
750.426	57
751.599	52
752.772	57
753.946	54
755.119	56
756.293	48
757.466	52
758.639	51
759.811	56
760.984	52
762.155	51
763.327	51
764.499	53
765.67	48
766.842	46
768.013	48
769.183	50
770.354	51
771.525	50
772.696	50
773.865	60
775.035	52
776.205	50
777.375	52
778.544	50
779.713	47
780.882	52
782.052	48
783.219	52
784.388	53
785.557	53
786.724	54
787.892	51
789.06	56
790.227	56
791.395	48
792.562	57
793.728	53
794.895	51
796.061	47
797.228	45
798.395	52
799.56	48
800.726	44
801.891	52
803.057	57
804.221	49
805.387	47
806.551	47
807.716	52
808.879	55
810.044	47
811.208	51
812.372	51
813.535	51
814.699	53
815.862	53
817.025	56
818.188	47
819.351	53
820.513	51
821.675	51
822.837	48
823.999	47
825.161	50
826.322	52
827.483	43
828.645	51
829.805	47
830.966	50
832.127	44
833.287	49
834.447	51
835.607	50
836.767	49
837.926	43
839.085	47
840.245	42
841.404	46
842.562	46
843.72	48
844.88	52
846.038	44
847.195	49
848.353	47
849.512	44
850.669	50
851.826	46
852.983	44
854.139	53
855.296	48
856.453	47
857.609	51
858.765	49
859.921	53
861.077	47
862.232	47
863.387	45
864.542	47
865.697	49
866.852	49
868.008	46
869.162	53
870.316	45
871.47	49
872.624	47
873.778	50
874.931	52
876.084	49
877.237	50
878.39	44
879.543	50
880.695	42
881.846	51
882.999	46
884.151	52
885.302	39
886.454	49
887.606	49
888.757	42
889.908	42
891.059	44
892.21	51
893.359	39
894.509	45
895.659	37
896.81	47
897.959	50
899.109	50
900.257	43
901.407	44
902.556	51
903.705	45
904.854	47
906.001	45
907.149	48
908.298	45
909.446	43
910.592	45
911.74	52
912.888	42
914.034	41
915.181	40
916.328	46
917.473	45
918.62	48
919.766	45
920.911	46
922.058	40
923.204	46
924.348	47
925.494	47
926.638	47
927.783	41
928.928	43
930.072	46
931.216	44
932.36	41
933.504	45
934.647	49
935.791	48
936.933	48
938.077	41
939.219	52
940.363	50
941.504	42
942.647	44
943.789	42
944.932	44
946.073	45
947.215	50
948.356	45
949.498	40
950.638	35
951.778	43
952.92	41
954.06	44
955.199	43
956.34	43
957.479	43
958.62	49
959.759	42
960.898	47
962.038	43
963.176	41
964.315	41
965.453	38
966.592	50
967.73	34
968.867	44
970.006	40
971.144	42.5
972.281	45
973.418	37
974.554	43
975.692	41
976.829	37
977.965	43
979.101	42
980.237	43
981.374	46
982.509	45
983.645	45
984.78	48
985.915	40
987.05	38
988.184	43
989.319	40
990.453	46
991.589	39
992.722	45
993.856	46
994.99	41
996.123	47
997.257	40
998.39	45
999.523	40
1000.66	43
1001.79	39
1002.92	43
1004.05	42
1005.18	46
1006.32	48
1007.45	45
1008.58	49
1009.71	42
1010.84	44
1011.97	35
1013.1	40
1014.23	38
1015.36	46
1016.49	37
1017.62	39
1018.75	44
1019.88	34
1021.01	41
1022.14	43
1023.27	41
1024.4	39
1025.53	40
1026.66	39
1027.79	41
1028.91	40
1030.04	39
1031.17	42
1032.3	36
1033.42	36
1034.55	40
1035.68	41
1036.81	41
1037.93	40
1039.06	44
1040.18	45
1041.31	43
1042.44	38
1043.56	43
1044.69	39
1045.81	48
1046.94	32
1048.06	38
1049.19	36
1050.31	43
1051.44	43
1052.56	43
1053.69	41
1054.81	43
1055.93	44
1057.06	40
1058.18	40
1059.3	36
1060.43	45
1061.55	43
1062.67	36
1063.79	38
1064.92	46
1066.04	43
1067.16	40
1068.28	40
1069.4	47
1070.52	39
1071.65	39
1072.77	38
1073.89	38
1075.01	38
1076.13	43
1077.25	42
1078.37	41
1079.49	37
1080.61	33
1081.73	36
1082.85	45
1083.97	42
1085.09	41
1086.2	43
1087.32	42
1088.44	39
1089.56	37
1090.68	38
1091.8	42
1092.91	41
1094.03	40
1095.15	40
1096.26	39
1097.38	36
1098.5	35
1099.61	40
1100.73	38
1101.85	40
1102.96	34
1104.08	40
1105.19	39
1106.31	45
1107.43	36
1108.54	39
1109.66	40
1110.77	39
1111.88	31
1113	40
1114.11	42
1115.23	33
1116.34	38
1117.46	36
1118.57	41
1119.68	42
1120.8	35
1121.91	41
1123.02	40
1124.13	41
1125.25	36
1126.36	42
1127.47	41
1128.58	36
1129.69	45
1130.8	40
1131.92	42
1133.03	34
1134.14	42
1135.25	41
1136.36	37
1137.47	39
1138.58	36
1139.69	37
1140.8	42
1141.91	48
1143.02	46
1144.13	45
1145.24	47
1146.35	45
1147.46	48
1148.56	43
1149.67	51
1150.78	40
1151.89	38
1153	41
1154.1	42
1155.21	38
1156.32	41
1157.43	41
1158.53	42
1159.64	39
1160.75	36
1161.85	38
1162.96	37
1164.07	36
1165.17	42
1166.28	38
1167.38	38
1168.49	46
1169.59	37
1170.7	40
1171.8	40
1172.91	42
1174.01	38
1175.12	34
1176.22	35
1177.32	39
1178.43	38
1179.53	47
1180.64	38
1181.74	43
1182.84	40
1183.94	37
1185.05	34
1186.15	41
1187.25	40
1188.35	44
1189.46	46
1190.56	41
1191.66	36
1192.76	34
1193.86	36
1194.96	34
1196.06	38.9412
1197.16	39.7673
1198.26	38.6245
1199.37	35.7369
1200.47	37.7154
1201.57	34.6912
1202.67	32.5487
1203.77	34.3041
1204.86	38.6563
1205.96	36.8043
1207.06	33.2749
1208.16	34.756
1209.26	38.4155
1210.36	32.4014
1211.46	33.1479
1212.56	37.5561
1213.65	34.0317
1214.75	36.2843
1215.85	35.5433
1216.95	38.7138
1218.04	35.0006
1219.14	36.8514
1220.24	36.8801
1221.33	36.4657
1222.43	32.8818
1223.53	37.3132
1224.62	31.7294
1225.72	31.127
1226.82	34.3594
1227.91	33.6015
1229.01	34.7308
1230.1	35.9834
1231.2	37.6719
1232.29	36.6538
1233.39	33.9666
1234.48	34.772
1235.58	34.9272
1236.67	35.0384
1237.77	36.2533
1238.86	34.592
1239.95	35.5889
1241.05	34.7993
1242.14	30.1014
1243.23	33.674
1244.33	33.6373
1245.42	35.201
1246.51	28.7704
1247.61	34.9757
1248.7	30.6718
1249.79	32.1765
1250.88	31.4108
1251.97	34.3828
1253.07	32.1597
1254.16	33.5037
1255.25	32.5505
1256.34	32.1912
1257.43	31.1243
1258.52	29.5049
1259.61	33.3032
1260.7	30.5839
1261.79	30.1606
1262.88	31.9456
1263.97	34.2598
1265.06	32.145
1266.15	31.324
1267.24	27.6368
1268.33	31.6442
1269.42	32.8835
1270.51	33.2761
1271.6	34.2986
1272.68	30.0478
1273.77	29.1225
1274.86	29.9428
1275.95	30.8004
1277.04	30.0421
1278.12	30.9721
1279.21	31.3958
1280.3	29.5714
1281.39	30.0868
1282.47	28.6901
1283.56	29.8197
1284.65	28.9549
1285.73	28.7206
1286.82	28.1807
1287.91	29.6254
1288.99	27.8503
1290.08	30.3455
1291.16	29.9371
1292.25	28.0093
1293.33	29.9854
1294.42	28.2509
1295.5	29.2865
1296.59	28.5264
1297.67	28.8275
1298.76	23.3749
1299.84	26.8824
1300.92	25.0779
1302.01	29.2258
1303.09	29.4267
1304.17	22.8104
1305.26	26.0285
1306.34	24.2233
1307.34	26
1308.43	25
1309.52	25
1310.61	28
1311.7	30
1312.78	23
1313.87	28
1314.96	27
1316.04	28
1317.13	28
1318.22	28
1319.3	25
1320.39	30
1321.48	22
1322.56	28
1323.65	24
1324.73	25
1325.82	22
1326.9	29
1327.99	29
1329.07	30
1330.16	24
1331.24	25
1332.33	31
1333.41	20
1334.5	27
1335.58	24
1336.66	28
1337.75	25
1338.83	24
1339.91	26
1341	34
1342.08	30
1343.16	28
1344.24	31
1345.33	33
1346.41	29
1347.49	29
1348.57	26
1349.65	29
1350.74	25
1351.82	24
1352.9	28
1353.98	30
1355.06	27
1356.14	18
1357.22	26
1358.3	30
1359.38	24
1360.46	28
1361.54	27
1362.62	30
1363.7	27
1364.78	26
1365.86	26
1366.94	25
1368.02	24
1369.09	24
1370.17	28
1371.25	26
1372.33	24
1373.41	29
1374.48	32
1375.56	26
1376.64	32
1377.72	26
1378.79	29
1379.87	27
1380.95	22
1382.02	26
1383.1	33
1384.17	27
1385.25	22
1386.33	22
1387.4	28
1388.48	27
1389.55	27
1390.63	27
1391.7	32
1392.78	28
1393.85	27
1394.93	26
1396	28
1397.07	28
1398.15	29
1399.22	31
1400.3	27
1401.37	33
1402.44	33
1403.52	30
1404.59	32
1405.66	36
1406.73	27
1407.81	29
1408.88	26
1409.95	29
1411.02	33
1412.09	31
1413.17	32
1414.24	31
1415.31	37
1416.38	32
1417.45	36
1418.52	31
1419.59	32
1420.66	27
1421.73	29
1422.8	32
1423.87	32
1424.94	25
1426.01	30
1427.08	30
1428.15	26
1429.22	31
1430.29	28
1431.35	30
1432.42	26
1433.49	26
1434.56	31
1435.63	30
1436.69	30
1437.76	29
1438.83	32
1439.9	32
1440.96	30
1442.03	30
1443.1	28
1444.17	31
1445.23	26
1446.3	26
1447.36	28
1448.43	24
1449.49	26
1450.56	27
1451.63	28
1452.69	32
1453.76	22
1454.82	29
1455.89	30
1456.95	29
1458.01	29
1459.08	30
1460.14	27
1461.21	28
1462.27	26
1463.34	28
1464.4	30
1465.46	28
1466.52	25
1467.59	26
1468.65	24
1469.71	30
1470.77	27
1471.84	28
1472.9	30
1473.96	30
1475.02	24
1476.08	32
1477.15	26
1478.21	26
1479.27	30
1480.33	32
1481.39	30
1482.45	31
1483.51	24
1484.57	26
1485.63	30
1486.69	30
1487.75	24
1488.81	30
1489.87	31
1490.93	31
1491.99	26
1493.05	31
1494.1	28
1495.16	28
1496.22	27
1497.28	29
1498.34	28
1499.4	27
1500.45	28
1501.51	25
1502.57	32
1503.63	25
1504.68	25
1505.74	26
1506.8	31
1507.85	32
1508.91	29
1509.97	30
1511.02	30
1512.08	22
1513.13	24
1514.19	26
1515.24	25
1516.3	35
1517.35	32
1518.41	28
1519.46	28
1520.52	24
1521.57	26
1522.63	33
1523.68	30
1524.73	26
1525.79	28
1526.84	28
1527.9	26
1528.95	28
1530	29
1531.05	27
1532.11	28
1533.16	28
1534.21	30
1535.26	28
1536.32	30
1537.37	27
1538.42	30
1539.47	30
1540.52	28
1541.57	25
1542.63	26
1543.68	30
1544.73	30
1545.78	26
1546.83	24
1547.88	29
1548.93	22
1549.98	30
1551.03	32
1552.08	28
1553.13	26
1554.18	28
1555.23	30
1556.27	26
1557.32	24
1558.37	28
1559.42	26
1560.47	30
1561.52	30
1562.56	27
1563.61	32
1564.66	29
1565.71	33
1566.75	33
1567.8	26
1568.85	26
1569.9	33
1570.94	28
1571.99	24
1573.03	28
1574.08	30
1575.13	24
1576.17	31
1577.22	29
1578.26	25
1579.31	32
1580.35	35
1581.4	31
1582.44	27
1583.49	28
1584.53	29
1585.58	24
1586.62	28
1587.66	32
1588.71	27
1589.75	33
1590.8	24
1591.84	27
1592.88	34
1593.92	26
1594.97	30
1596.01	31
1597.05	30
1598.1	32
1599.14	26
1600.18	33
1601.22	32
1602.26	26
1603.3	28
1604.35	29
1605.39	26
1606.43	26
1607.47	30
1608.51	32
1609.55	29
1610.59	29
1611.63	31
1612.67	28
1613.71	26
1614.75	30
1615.79	29
1616.83	32
1617.87	28
1618.91	32
1619.95	28
1620.99	26
1622.02	25
1623.06	30
1624.1	26
1625.14	29
1626.18	28
1627.21	24
1628.25	28
1629.29	29
1630.33	33
1631.36	26
1632.4	26
1633.44	30
1634.48	30
1635.51	28
1636.55	32
1637.58	26
1638.62	32
1639.66	30
1640.69	31
1641.73	27
1642.76	28
1643.8	31
1644.83	26
1645.87	25
1646.9	27
1647.94	30
1648.97	30
1650	27
1651.04	27
1652.07	26
1653.11	26
1654.14	31
1655.17	26
1656.21	26
1657.24	25
1658.27	30
1659.31	28
1660.34	32
1661.37	23
1662.4	29
1663.43	28
1664.47	26
1665.5	26
1666.53	27
1667.56	26
1668.59	28
1669.62	33
1670.66	27
1671.69	28
1672.72	29
1673.75	27
1674.78	27
1675.81	29
1676.84	31
1677.87	32
1678.9	26
1679.93	30
1680.96	24
1681.98	27
1683.01	28
1684.04	30
1685.07	28
1686.1	34
1687.13	26
1688.16	22
1689.18	28
1690.21	26
1691.24	28
1692.27	26
1693.3	29
1694.32	32
1695.35	28
1696.38	31
1697.4	27
1698.43	34
1699.46	29
1700.48	30
1701.51	31
1702.54	30
1703.56	25
1704.59	27
1705.61	26
1706.64	24
1707.66	27
1708.69	32
1709.71	28
1710.74	28
1711.76	22
1712.79	28
1713.81	24
1714.83	28
1715.86	30
1716.88	22
1717.91	28
1718.93	31
1719.95	30
1720.98	29
1722	24
1723.02	30
1724.04	31
1725.07	25
1726.09	24
1727.11	27
1728.13	28
1729.15	27
1730.18	24
1731.2	28
1732.22	28
1733.24	30
1734.26	22
1735.28	30
1736.3	25
1737.32	30
1738.34	28
1739.36	24
1740.38	24
1741.4	24
1742.42	26
1743.44	30
1744.46	26
1745.48	30
1746.5	29
1747.52	30
1748.54	26
1749.56	28
1750.58	29
1751.6	27
1752.61	26
1753.63	28
1754.65	29
1755.67	31
1756.68	24
1757.7	30
1758.72	29
1759.74	27
1760.75	28
1761.77	28
1762.79	26
1763.8	28
1764.82	31
1765.83	24
1766.85	29
1767.87	29
1768.88	26
1769.9	32
1770.91	27
1771.93	29
1772.94	28
1773.96	30
1774.97	22
1775.99	28
1777	28
1778.02	24
1779.03	30
1780.04	27
1781.06	22
1782.07	30
1783.09	28
1784.1	34
1785.11	25
1786.13	26
1787.14	32
1788.15	32
1789.16	28
1790.18	22
1791.19	28
1792.2	27
1793.21	25
1794.22	27
1795.23	24
1796.25	23
1797.26	28
1798.27	28
1799.28	32
1800.29	26
1801.3	29
1802.31	27
1803.32	28
1804.33	28
1805.34	22
1806.35	29
1807.36	29
1808.37	28
1809.38	29
1810.39	31
1811.4	28
1812.41	31
1813.42	31
1814.42	24
1815.43	33
1816.44	27
1817.45	28
1818.46	26
1819.47	29
1820.47	30
1821.48	26
1822.49	28
1823.49	30
1824.5	26
1825.51	32
1826.52	22
1827.52	24
1828.53	28
1829.53	24
1830.54	28
1831.55	28
1832.55	28
1833.56	26
1834.56	24
1835.57	26
1836.57	30
1837.58	30
1838.58	30
1839.59	26
1840.59	26
1841.6	28
1842.6	26
1843.61	27
1844.61	26
1845.61	27
1846.62	29
1847.62	29
1848.62	26
1849.63	29
1850.63	30
1851.63	24
1852.64	28
1853.64	22
1854.64	29
1855.64	28
1856.64	31
1857.65	29
1858.65	29
1859.65	29
1860.65	27
1861.65	28
1862.65	29
1863.65	25
1864.66	27
1865.66	26
1866.66	28
1867.66	32
1868.66	28
1869.66	30
1870.66	24
1871.66	29
1872.66	28
1873.66	29
1874.66	27
1875.65	28
1876.65	30
1877.65	26
1878.65	29
1879.65	26
1880.65	24
1881.65	30
1882.64	32
1883.64	31
1884.64	24
1885.64	24
1886.63	24
1887.63	28
1888.63	31
1889.63	33
1890.62	24
1891.62	28
1892.62	24
1893.61	26
1894.61	30
1895.6	28
1896.6	26
1897.6	31
1898.59	29
1899.59	28
1900.58	32
1901.58	25
1902.57	29
1903.57	29
1904.56	26
1905.56	24
1906.55	24
1907.54	26
1908.54	26
1909.53	28
1910.53	28
1911.52	29
1912.51	28
1913.51	28
1914.5	26
1915.49	26
1916.49	30
1917.48	26
1918.47	26
1919.46	34
1920.46	26
1921.45	30
1922.44	28
1923.43	26
1924.42	28
1925.41	29
1926.41	32
1927.4	26
1928.39	28
1929.38	29
1930.37	25
1931.36	20
1932.35	27
1933.34	26
1934.33	29
1935.32	24
1936.31	28
1937.3	29
1938.29	25
1939.28	28
1940.27	30
1941.26	27
1942.24	26
1943.23	26
1944.22	28
1945.21	28
1946.2	22
1947.19	28
1948.17	22
1949.16	28
1950.15	31
1951.14	29
1952.12	30
1953.11	27
1954.1	25
1955.09	26
1956.07	26
1957.06	27
1958.05	29
1959.03	28
1960.02	34
1961	27
1961.99	22
1962.98	24
1963.96	26
1964.95	29
1965.93	26
1966.92	26
1967.9	25
1968.89	24
1969.87	24
1970.85	33
1971.84	26
1972.82	16
1973.81	26
1974.79	26
1975.78	25
1976.76	25
1977.74	25
1978.73	22
1979.71	28
1980.69	28
1981.67	28
1982.66	31
1983.64	29
1984.62	29
1985.6	24
1986.59	25
1987.57	24
1988.55	30
1989.53	30
1990.51	26
1991.49	26
1992.47	30
1993.45	27
1994.44	28
1995.42	26
1996.4	26
1997.38	27
1998.36	20
1999.34	26
2000.32	24
2001.3	28
2002.28	25
2003.26	22
2004.24	30
2005.22	27
2006.19	30
2007.17	30
2008.15	25
2009.13	27
2010.11	34
2011.09	32
2012.06	34
2013.04	28
2014.02	28
2015	26
2015.98	32
2016.95	22
2017.93	28
2018.91	28
2019.88	28
2020.86	25
2021.84	28
2022.81	26
2023.79	29
2024.77	23
2025.74	26
2026.72	30
2027.69	22
2028.67	24
2029.65	28
2030.62	25
2031.6	22
2032.57	25
2033.55	28
2034.52	26
2035.5	31
2036.47	26
2037.44	22
2038.42	28
2039.39	27
2040.36	26
2041.34	30
2042.31	25
2043.29	27
2044.26	27
2045.23	27
2046.2	33
2047.18	29
2048.15	24
2049.12	27
2050.09	25
2051.07	28
2052.04	19
2053.01	28
2053.98	27
2054.95	26
2055.93	26
2056.9	29
2057.87	24
2058.84	30
2059.81	28
2060.78	26
2061.75	27
2062.72	26
2063.69	28
2064.66	18
2065.63	28
2066.6	28
2067.57	26
2068.54	26
2069.51	28
2070.48	24
2071.45	26
2072.42	27
2073.38	28
2074.35	25
2075.32	24
2076.29	28
2077.26	29
2078.23	26
2079.19	26
2080.16	30
2081.13	26
2082.1	26
2083.06	24
2084.03	30
2085	25
2085.96	31
2086.93	28
2087.9	25
2088.86	26
2089.83	26
2090.8	26
2091.76	29
2092.73	27
2093.69	23
2094.66	29
2095.62	23
2096.59	26
2097.55	27
2098.52	28
2099.48	22
2100.45	29
2101.41	30
2102.38	29
2103.34	25
2104.31	26
2105.27	29
2106.23	24
2107.2	30
2108.16	22
2109.12	31
2110.09	26
2111.05	26
2112.01	34
2112.98	25
2113.94	25
2114.9	24
2115.86	28
2116.82	24
2117.79	28
2118.75	24
2119.71	27
2120.67	25
2121.63	32
2122.59	30
2123.55	27
2124.52	28
2125.48	26
2126.44	23
2127.4	25
2128.36	27
2129.32	26
2130.28	25
2131.24	28
2132.2	28
2133.16	28
2134.12	28
2135.08	25
2136.04	28
2136.99	29
2137.95	24
2138.91	24
2139.87	27
2140.83	27
2141.79	25
2142.75	27
2143.7	25
2144.66	28
2145.62	28.9741
2146.58	23.9626
2147.53	22.1085
2148.49	27.112
2149.45	24.8778
2150.41	26.8883
2151.36	24.0295
2152.32	28.1895
2153.27	24
2154.23	30.319
2155.19	20.7149
2156.14	22.1174
2157.1	25.7369
2158.06	31.312
2159.01	26.2732
2159.97	27.5441
2160.92	29.1787
2161.88	25.81
2162.83	24.366
2163.79	23.3382
2164.74	24.6048
2165.7	22.6363
2166.65	25.9969
2167.61	24.7789
2168.56	24.4685
2169.51	26.75
2170.47	29.2117
2171.42	26.2237
2172.38	25.4412
2173.33	26.2935
2174.28	25.9349
2175.24	28.1843
2176.19	22.2127
2177.14	26.5487
2178.09	25.0462
2179.05	23.9172
2180	30.8029
2180.95	24.3372
2181.9	28.9514
2182.86	23.9244
2183.81	27.6834
2184.76	21.586
2185.71	22.43
2186.66	24.147
2187.61	27.2713
2188.57	26.13
2189.52	26.42
2190.47	23.4632
2191.42	25.4057
2192.37	26.3089
2193.32	24.3094
2194.27	26.1873
2195.22	24.3435
2196.17	24.082
2197.12	24.3022
2198.07	22.0992
2199.02	25.1439
2199.97	24.3262
2200.92	24.8529
2201.87	26.6945
2202.82	22.8667
2203.76	25.8206
2204.71	27.0913
2205.66	27.0334
2206.61	25.3918
2207.56	26.9064
2208.51	26.0066
2209.45	23.9853
2210.4	23.2057
2211.35	26.2585
2212.3	22.3583
2213.24	24.7416
2214.19	24.4216
2215.14	24.0301
2216.09	23.1177
2217.03	26.8958
2217.98	26.9024
2218.93	23.6352
2219.87	23.5373
2220.82	24.2206
2221.77	26.1424
2222.71	26.7475
2223.66	23.3018
2224.6	22.3627
2225.55	21.7902
2226.49	23.7979
2227.44	23.9502
2228.38	23.1797
2229.33	24.8731
2230.27	23.7505
2231.22	24.919
2232.16	24.3312
2233.11	26.6557
2234.05	21.4295
2235	23.2274
2235.94	25.2828
2236.88	25.8276
2237.83	24
2238.77	25.0091
2239.71	25.1527
2240.66	25.1226
2241.6	27.1531
2242	28
2242.95	24
2243.9	29
2244.84	18
2245.79	22
2246.74	29
2247.69	24
2248.63	28
2249.58	25
2250.53	27
2251.47	27
2252.42	26
2253.37	28
2254.31	29
2255.26	23
2256.2	28
2257.15	28
2258.1	26
2259.04	23
2259.99	22
2260.93	24
2261.88	22
2262.82	28
2263.77	23
2264.71	27
2265.65	20
2266.6	28
2267.54	27
2268.49	28
2269.43	24
2270.38	25
2271.32	28
2272.26	23
2273.21	28
2274.15	25
2275.09	28
2276.04	28
2276.98	28
2277.92	25
2278.86	26
2279.81	24
2280.75	22
2281.69	24
2282.63	22
2283.57	28
2284.52	26
2285.46	26
2286.4	25
2287.34	27
2288.28	24
2289.22	26
2290.16	27
2291.1	29
2292.04	21
2292.98	28
2293.93	29
2294.86	26
2295.8	28
2296.74	26
2297.69	24
2298.62	24
2299.56	27
2300.5	26
2301.44	28
2302.38	28
2303.32	20
2304.26	26
2305.2	26
2306.14	26
2307.07	28
2308.01	24
2308.95	20
2309.89	25
2310.83	20
2311.76	26
2312.7	29
2313.64	28
2314.58	29
2315.51	26
2316.45	24
2317.39	22
2318.32	24
2319.26	26
2320.2	22
2321.13	24
2322.07	25
2323	28
2323.94	23
2324.88	25
2325.81	25
2326.75	30
2327.68	18
2328.62	31
2329.55	30
2330.49	26
2331.42	20
2332.36	24
2333.29	20
2334.22	22
2335.16	24
2336.09	26
2337.03	30
2337.96	27
2338.89	29
2339.83	26
2340.76	26
2341.69	26
2342.63	28
2343.56	26
2344.49	29
2345.43	26
2346.36	29
2347.29	26
2348.22	26
2349.15	31
2350.09	27
2351.02	26
2351.95	28
2352.88	24
2353.81	30
2354.74	22
2355.67	24
2356.61	23
2357.54	26
2358.47	26
2359.4	23
2360.33	28
2361.26	29
2362.19	28
2363.12	30
2364.05	30
2364.98	22
2365.91	27
2366.84	24
2367.77	27
2368.7	24
2369.62	27
2370.55	30
2371.48	25
2372.41	26
2373.34	28
2374.27	25
2375.2	25
2376.12	26
2377.05	28
2377.98	27
2378.91	26
2379.83	30
2380.76	28
2381.69	24
2382.62	30
2383.54	18
2384.47	22
2385.4	24
2386.32	21
2387.25	26
2388.18	24
2389.1	22
2390.03	24
2390.95	30
2391.88	26
2392.81	28
2393.73	27
2394.66	30
2395.58	26
2396.51	22
2397.43	26
2398.36	26
2399.28	26
2400.2	25
2401.13	26
2402.05	29
2402.98	22
2403.9	27
2404.83	24
2405.75	29
2406.67	28
2407.6	28
2408.52	28
2409.44	25
2410.37	23
2411.29	24
2412.21	23
2413.13	30
2414.06	24
2414.98	27
2415.9	22
2416.82	26
2417.74	25
2418.67	28
2419.59	26
2420.51	22
2421.43	21
2422.35	24
2423.27	26
2424.19	22
2425.11	25
2426.03	20
2426.96	25
2427.88	27
2428.8	31
2429.72	26
2430.64	25
2431.56	25
2432.48	26
2433.39	28
2434.31	27
2435.23	24
2436.15	24
2437.07	20
2437.99	26
2438.91	28
2439.83	27
2440.75	28
2441.67	25
2442.58	27
2443.5	29
2444.42	30
2445.34	22
2446.26	26
2447.17	24
2448.09	22
2449.01	27
2449.92	24
2450.84	28
2451.76	30
2452.68	26
2453.59	24
2454.51	31
2455.42	27
2456.34	24
2457.26	26
2458.17	29
2459.09	27
2460	28
2460.92	29
2461.83	20
2462.75	30
2463.66	28
2464.58	30
2465.49	30
2466.41	30
2467.32	21
2468.24	24
2469.15	27
2470.07	27
2470.98	26
2471.89	26
2472.81	28
2473.72	26
2474.64	26
2475.55	20
2476.46	22
2477.37	32
2478.29	28
2479.2	28
2480.11	24
2481.03	29
2481.94	32
2482.85	28
2483.76	29
2484.67	30
2485.59	28
2486.5	24
2487.41	27
2488.32	32
2489.23	22
2490.14	29
2491.05	30
2491.97	24
2492.88	24
2493.79	24
2494.7	22
2495.61	26
2496.52	32
2497.43	29
2498.34	26
2499.25	30
2500.16	26
2501.07	28
2501.98	25
2502.89	27
2503.79	30
2504.7	28
2505.61	28
2506.52	32
2507.43	30
2508.34	25
2509.25	31
2510.16	28
2511.06	31
2511.97	26
2512.88	26
2513.79	29
2514.69	30
2515.6	25
2516.51	34
2517.42	22
2518.32	28
2519.23	32
2520.14	27
2521.04	26
2521.95	27
2522.86	30
2523.76	24
2524.67	26
2525.57	31
2526.48	23
2527.39	24
2528.29	22
2529.2	30
2530.1	26
2531.01	30
2531.91	25
2532.82	27
2533.72	24
2534.63	24
2535.53	28
2536.44	28
2537.34	28
2538.24	24
2539.15	27
2540.05	28
2540.96	32
2541.86	24
2542.76	29
2543.67	28
2544.57	26
2545.47	32
2546.37	28
2547.28	28
2548.18	26
2549.08	31
2549.99	24
2550.89	28
2551.79	26
2552.69	30
2553.59	27
2554.49	25
2555.4	26
2556.3	22
2557.2	30
2558.1	32
2559	20
2559.9	22
2560.8	28
2561.7	32
2562.6	25
2563.5	24
2564.4	28
2565.3	28
2566.2	22
2567.1	32
2568	22
2568.9	29
2569.8	28
2570.7	24
2571.6	26
2572.5	30
2573.4	28
2574.3	26
2575.2	25
2576.1	22
2576.99	25
2577.89	26
2578.79	28
2579.69	30
2580.59	26
2581.48	23
2582.38	30
2583.28	23
2584.18	26
2585.07	28
2585.97	28
2586.87	26
2587.76	29
2588.66	23
2589.56	27
2590.45	28
2591.35	28
2592.25	26
2593.14	30
2594.04	30
2594.93	26
2595.83	26
2596.73	24
2597.62	26
2598.52	22
2599.41	24
2600.31	22
2601.2	26
2602.1	26
2602.99	30
2603.88	28
2604.78	27
2605.67	32
2606.57	24
2607.46	28
2608.35	30
2609.25	24
2610.14	22
2611.03	26
2611.93	28
2612.82	22
2613.71	22
2614.61	26
2615.5	28
2616.39	27
2617.29	25
2618.18	24
2619.07	24
2619.96	26
2620.85	28
2621.75	29
2622.64	28
2623.53	24
2624.42	26
2625.31	28
2626.2	30
2627.09	30
2627.98	28
2628.88	27
2629.77	25
2630.66	29
2631.55	28
2632.44	29
2633.33	26
2634.22	28
2635.11	25
2636	31
2636.89	28
2637.78	24
2638.66	24
2639.55	25
2640.44	27
2641.33	26
2642.22	27
2643.11	30
2644	28
2644.89	31
2645.78	27
2646.66	27
2647.55	28
2648.44	29
2649.33	24
2650.21	30
2651.1	22
2651.99	26
2652.88	28
2653.76	33
2654.65	29
2655.54	29
2656.42	28
2657.31	28
2658.2	28
2659.08	29
2659.97	29
2660.86	25
2661.74	26
2662.63	30
2663.51	27
2664.4	30
2665.29	29
2666.17	26
2667.06	20
2667.94	28
2668.83	30
2669.71	26
2670.6	30
2671.48	28
2672.36	26
2673.25	26
2674.13	28
2675.02	29
2675.9	26
2676.78	26
2677.67	24
2678.55	24
2679.43	26
2680.32	28
2681.2	28
2682.08	28
2682.97	28
2683.85	29
2684.73	30
2685.61	29
2686.5	22
2687.38	31
2688.26	32
2689.14	26
2690.03	28
2690.91	24
2691.79	25
2692.67	24
2693.55	25
2694.43	28
2695.31	28
2696.19	28
2697.08	28
2697.96	26
2698.84	28
2699.72	27
2700.6	18
2701.48	28
2702.36	26
2703.24	28
2704.12	26
2705	25
2705.88	26
2706.76	26
2707.64	28
2708.51	24
2709.39	22
2710.27	29
2711.15	27
2712.03	26
2712.91	26
2713.79	24
2714.67	25
2715.54	27
2716.42	26
2717.3	28
2718.18	25
2719.05	31
2719.93	27
2720.81	29
2721.69	24
2722.56	31
2723.44	28
2724.32	31
2725.19	27
2726.07	33
2726.95	24
2727.82	20
2728.7	26
2729.58	27
2730.45	29
2731.33	31
2732.2	27
2733.08	26
2733.95	28
2734.83	29
2735.7	29
2736.58	26
2737.45	22
2738.33	26
2739.2	30
2740.08	24
2740.95	25
2741.83	31
2742.7	34
2743.58	26
2744.45	22
2745.32	21
2746.2	26
2747.07	27
2747.94	23
2748.82	28
2749.69	30
2750.56	25
2751.44	26
2752.31	25
2753.18	28
2754.05	25
2754.93	28
2755.8	28
2756.67	23
2757.54	26
2758.42	28
2759.29	29
2760.16	23
2761.03	26
2761.9	25
2762.77	22
2763.64	20
2764.51	25
2765.38	26
2766.26	27
2767.13	26
2768	34
2768.87	28
2769.74	31
2770.61	25
2771.48	30
2772.35	24
2773.22	32
2774.09	30
2774.96	26
2775.83	23
2776.7	26
2777.56	29
2778.43	30
2779.3	28
2780.17	24
2781.04	14
2781.91	24
2782.78	33
2783.64	23
2784.51	30
2785.38	29
2786.25	29
2787.12	36
2787.98	29
2788.85	28
2789.72	24
2790.59	28
2791.45	32
2792.32	27
2793.19	24
2794.05	24
2794.92	28
2795.79	28
2796.65	30
2797.52	30
2798.38	27
2799.25	26
2800.12	28
2800.98	33
2801.85	28
2802.71	24
2803.58	27
2804.44	30
2805.31	28
2806.17	27
2807.04	26
2807.9	31
2808.77	24
2809.63	30
2810.5	31
2811.36	28
2812.22	31
2813.09	24
2813.95	26
2814.82	25
2815.68	26
2816.54	34
2817.41	28
2818.27	28
2819.13	27
2820	27
2820.86	28
2821.72	29
2822.58	34
2823.45	31
2824.31	31
2825.17	28
2826.03	28
2826.9	28
2827.76	29
2828.62	27
2829.48	29
2830.34	29
2831.2	32
2832.06	28
2832.92	24
2833.79	32
2834.65	29
2835.51	25
2836.37	30
2837.23	30
2838.09	29
2838.95	26
2839.81	26
2840.67	28
2841.53	28
2842.39	30
2843.25	27
2844.11	29
2844.97	27
2845.83	30
2846.68	26
2847.54	26
2848.4	28
2849.26	24
2850.12	25
2850.98	28
2851.84	30
2852.69	27
2853.55	24
2854.41	29
2855.27	31
2856.13	24
2856.98	24
2857.84	30
2858.7	28
2859.56	28
2860.41	32
2861.27	28
2862.13	30
2862.98	29
2863.84	29
2864.7	28
2865.55	28
2866.41	26
2867.27	24
2868.12	33
2868.98	31
2869.83	31
2870.69	27
2871.54	30
2872.4	28
2873.25	32
2874.11	29
2874.96	28
2875.82	34
2876.68	31
2877.53	24
2878.38	27
2879.24	35
2880.09	32
2880.95	36
2881.8	29
2882.65	30
2883.51	34
2884.36	32
2885.22	33
2886.07	38
2886.92	34
2887.77	36
2888.63	36
2889.48	40
2890.33	41
2891.19	39
2892.04	39
2892.89	37
2893.74	46
2894.6	44
2895.45	42
2896.3	47
2897.15	54
2898	42
2898.85	52
2899.71	53
2900.56	54
2901.41	54
2902.26	56
2903.11	58
2903.96	64
2904.81	62
2905.66	61
2906.51	59
2907.36	52
2908.21	66
2909.06	49
2909.91	65
2910.76	58
2911.61	54
2912.46	56
2913.31	48
2914.16	50
2915.01	46
2915.86	42
2916.71	42
2917.56	43
2918.41	41
2919.26	43
2920.1	42
2920.95	40
2921.8	34
2922.65	36
2923.5	34
2924.34	34
2925.19	28
2926.04	26
2926.89	32
2927.74	32
2928.58	28
2929.43	31
2930.28	33
2931.12	33
2931.97	27
2932.82	32
2933.66	29
2934.51	30
2935.36	24
2936.2	27
2937.05	31
2937.89	29
2938.74	27
2939.59	28
2940.43	28
2941.28	31
2942.12	33
2942.97	29
2943.81	34
2944.66	24
2945.5	32
2946.35	31
2947.19	30
2948.04	32
2948.88	31
2949.72	30
2950.57	35
2951.41	28
2952.26	30
2953.1	34
2953.94	31
2954.79	38
2955.63	32
2956.47	28
2957.32	40
2958.16	30
2959	34
2959.85	34
2960.69	38
2961.53	38
2962.37	45
2963.22	39
2964.06	40
2964.9	38
2965.74	46
2966.58	40
2967.42	46
2968.27	43
2969.11	42
2969.95	41
2970.79	38
2971.63	38
2972.47	32
2973.31	40
2974.15	40
2974.99	36
2975.83	32
2976.68	37
2977.52	35
2978.36	36
2979.2	26
2980.04	34
2980.88	28
2981.71	33
2982.55	29
2983.39	31
2984.23	25
2985.07	28
2985.91	30
2986.75	30
2987.59	26
2988.43	31
2989.27	25
2990.1	32
2990.94	23
2991.78	29
2992.62	28
2993.46	28
2994.3	31
2995.13	28
2995.97	24
2996.81	27
2997.64	29
2998.48	28
2999.32	28
