#Acq. time (s)=	3
#Accumulations=	3
#Range (cm-¹)=	100...3000
#Windows=	3
#Autofocus=	Off
#AutoExposure=	Off
#Spike filter=	Multiple accum.
#Delay time (s)=	0
#Binning=	1
#Readout mode=	Signal
#DeNoise=	Off
#ICS correction=	Off
#Dark correction=	Off
#Inst. Process=	Off
#Instrument=	LabRAM HR Evol
#Detector=	Syncerity OE
#Objective=	x100_VIS_LWD
#Grating=	600 (500nm)
#ND Filter=	25%
#Laser=	633nm_Edge
#Hole=	100.021
#Range=	Visible
#Project=	Bolus
#Sample=	A5
#Site=	stripside
#Title=	m08
#Remark=	
#Date=	03.11.2025 16:28
#Acquired=	03.11.2025 16:28:25
100.969	23
102.252	32
103.535	35
104.818	32
106.101	32
107.384	28
108.666	35
109.948	35
111.232	28
112.514	30
113.795	32
115.077	32
116.358	26
117.639	34
118.919	33
120.2	30
121.48	31
122.76	32
124.04	31
125.32	35
126.599	32
127.879	32
129.158	29
130.436	28
131.715	35
132.992	29
134.27	34
135.548	31
136.826	31
138.104	36
139.381	34
140.658	33
141.935	33
143.212	34
144.489	40
145.763	34
147.04	32
148.315	33
149.591	32
150.867	37
152.142	35
153.416	36
154.691	37
155.965	34
157.24	41
158.514	39
159.786	37
161.06	34
162.334	40
163.607	38
164.881	43
166.152	39
167.425	42
168.698	36
169.969	37
171.241	37
172.513	33
173.785	34
175.055	34
176.326	38
177.597	37
178.867	36
180.137	32
181.408	38
182.677	41
183.947	34
185.217	38
186.485	34
187.755	37
189.022	45
190.291	41
191.56	32
192.828	36
194.096	38
195.363	36
196.631	35
197.899	36
199.165	38
200.432	37
201.698	34
202.965	36
204.23	34
205.497	42
206.762	35
208.028	36
209.293	34
210.559	37
211.823	35
213.088	32
214.352	32
215.617	33
216.88	29
218.145	35
219.408	38
220.672	39
221.934	32
223.196	34
224.46	32
225.722	34
226.985	32
228.246	31
229.508	34
230.77	30
232.031	32
233.292	31
234.554	35
235.814	28
237.074	30
238.335	28
239.595	34
240.854	30
242.115	32
243.374	30
244.633	27
245.893	30
247.151	29
248.409	30
249.667	34
250.927	31
252.184	34
253.442	30
254.699	28
255.957	32
257.214	27
258.47	37
259.727	30
260.983	30
262.24	24
263.496	30
264.752	31
266.007	31
267.262	31
268.517	28
269.773	32
271.028	35
272.282	31
273.536	26
274.79	30
276.044	27
277.297	30
278.551	24
279.804	27
281.057	29
282.31	29
283.564	33
284.816	20
286.068	26
287.32	30
288.572	24
289.823	30
291.074	29
292.325	24
293.576	32
294.827	28
296.077	28
297.328	28
298.578	28
299.828	28
301.077	24
302.325	33
303.575	28
304.824	30
306.073	35
307.321	28
308.57	33
309.818	24
311.066	24
312.314	30
313.562	26
314.808	28
316.055	30
317.302	27
318.549	27
319.796	32
321.042	30
322.288	29
323.533	32
324.779	30
326.024	28
327.27	27
328.515	27
329.759	29
331.004	28
332.248	30
333.493	32
334.736	30
335.98	30
337.223	28
338.466	24
339.709	28
340.952	24
342.195	32
343.437	29
344.68	26
345.922	31
347.163	23
348.405	32
349.647	27
350.887	31
352.128	25
353.37	32
354.609	32
355.85	34
357.089	28
358.33	28
359.57	32
360.809	28
362.049	27
363.287	28
364.526	31
365.764	29
367.003	26
368.241	30
369.479	28
370.718	30
371.955	24
373.193	30
374.429	30
375.667	28
376.903	34
378.139	32
379.376	32
380.611	33
381.848	27
383.083	34
384.319	27
385.554	26
386.79	30
388.024	26
389.258	30
390.493	28
391.727	32
392.962	26
394.195	28
395.428	27
396.663	31
397.895	26
399.128	26
400.361	28
401.593	29
402.825	32
404.058	32
405.29	32
406.521	32
407.752	27
408.985	28
410.215	29
411.446	26
412.678	26
413.908	26
415.138	29
416.367	31
417.597	28
418.828	29
420.057	31
421.286	33
422.514	25
423.743	29
424.973	30
426.201	36
427.429	26
428.657	31
429.884	30
431.112	29
432.34	29
433.567	24
434.794	34
436.02	32
437.247	31
438.473	28
439.699	29
440.925	32
442.15	35
443.376	29
444.601	30
445.826	28
447.051	34
448.275	30
449.5	28
450.724	33
451.948	30
453.172	34
454.396	31
455.619	33
456.842	30
458.065	30
459.288	26
460.511	32
461.733	32
462.956	30
464.178	33
465.4	30
466.621	28
467.843	35
469.064	34
470.285	33
471.505	32
472.726	32
473.946	36
475.166	40
476.387	37
477.606	38
478.825	41
480.044	32
481.264	47
482.483	42
483.702	52
484.921	44
486.138	50
487.356	53
488.574	58
489.792	55
491.009	55
492.226	50
493.444	48
494.661	51
495.877	49
497.094	48
498.31	40
499.525	47
500.741	40
501.958	45
503.172	36
504.388	36
505.603	36
506.817	35
508.032	36
509.247	44
510.46	36
511.675	34
512.888	35
514.102	35
515.316	33
516.528	28
517.742	30
518.954	33
520.167	36
521.378	32
522.591	35
523.802	33
525.015	28
526.226	28
527.438	30
528.648	30
529.86	33
531.07	27
532.281	31
533.491	38
534.702	20
535.911	25
537.121	31
538.33	31
539.54	26
540.749	32
541.957	24
543.167	33
544.375	24
545.584	33
546.791	32
547.999	30
549.207	32
550.414	30
551.621	20
552.829	34
554.035	33
555.241	30
556.449	26
557.655	32
558.86	28
560.066	30
561.272	31
562.477	33
563.682	37
564.888	24
566.093	26
567.297	28
568.501	28
569.705	32
570.91	33
572.114	24
573.317	26
574.52	29
575.723	30
576.927	26
578.13	30
579.332	28
580.535	31
581.737	30
582.938	30
584.14	28
585.343	30
586.544	29
587.745	29
588.946	28
590.147	30
591.347	27
592.548	31
593.748	30
594.948	26
596.147	31
597.347	22
598.546	24
599.745	25
600.944	24
602.143	30
603.342	26
604.54	22
605.738	32
606.937	31
608.134	28
609.332	28
610.529	32
611.727	32
612.924	33
614.121	32
615.317	29
616.513	30
617.709	28
618.905	28
620.101	31
621.297	28
622.492	27
623.688	34
624.883	22
626.077	29
627.271	31
628.466	30
629.66	32
630.855	32
632.047	30
633.241	30
634.435	32
635.629	33
636.82	30
638.014	28
639.207	33
640.399	32
641.59	29
642.783	32
643.975	31
645.166	31
646.357	30
647.549	28
648.741	22
649.93	26
651.122	30
652.311	30
653.502	30
654.692	28
655.881	30
657.071	32
658.261	30
659.45	28
660.639	30
661.827	29
663.016	31
664.204	30
665.393	32
666.581	29
667.769	28
668.957	29
670.143	34
671.331	32
672.518	32
673.705	34
674.891	30
676.078	32
677.264	35
678.451	31
679.636	36
680.821	27
682.007	34
683.192	32
684.378	34
685.562	36
686.747	24
687.931	33
689.115	37
690.3	37
691.483	37
692.666	31
693.851	30
695.034	36
696.216	37
697.4	35
698.582	32
699.764	35
700.948	38
702.129	34
703.311	36
704.493	39
705.674	40
706.855	43
708.036	48
709.218	45
710.399	44
711.579	38
712.759	40
713.939	37
715.12	36
716.299	35
717.478	36
718.657	35
719.836	30
721.015	33
722.195	28
723.373	30
724.552	31
725.729	32
726.907	32
728.085	32
729.262	33
730.44	27
731.617	27
732.795	31
733.972	26
735.148	24
736.324	31
737.501	28
738.677	32
739.852	27
741.028	30
742.203	32
743.379	27
744.554	33
745.729	24
746.903	27
748.078	36
749.252	28
750.426	26
751.599	29
752.772	29
753.946	28
755.119	28
756.293	34
757.466	26
758.639	31
759.811	30
760.984	27
762.155	37
763.327	28
764.499	26
765.67	32
766.842	28
768.013	26
769.183	32
770.354	28
771.525	31
772.696	32
773.865	29
775.035	23
776.205	30
777.375	30
778.544	30
779.713	31
780.882	34
782.052	31
783.219	36
784.388	32
785.557	31
786.724	35
787.892	34
789.06	38
790.227	29
791.395	36
792.562	30
793.728	29
794.895	30
796.061	28
797.228	32
798.395	33
799.56	30
800.726	27
801.891	35
803.057	30
804.221	24
805.387	30
806.551	34
807.716	34
808.879	24
810.044	28
811.208	29
812.372	29
813.535	30
814.699	26
815.862	22
817.025	27
818.188	32
819.351	31
820.513	27
821.675	30
822.837	35
823.999	30
825.161	20
826.322	32
827.483	30
828.645	32
829.805	26
830.966	27
832.127	30
833.287	26
834.447	32
835.607	25
836.767	24
837.926	30
839.085	22
840.245	28
841.404	31
842.562	28
843.72	28
844.88	28
846.038	28
847.195	28
848.353	28
849.512	29
850.669	31
851.826	28
852.983	26
854.139	30
855.296	28
856.453	25
857.609	32
858.765	29
859.921	30
861.077	30
862.232	28
863.387	30
864.542	30
865.697	28
866.852	32
868.008	29
869.162	26
870.316	30
871.47	36
872.624	29
873.778	34
874.931	28
876.084	26
877.237	26
878.39	28
879.543	29
880.695	29
881.846	34
882.999	30
884.151	27
885.302	30
886.454	27
887.606	33
888.757	25
889.908	27
891.059	30
892.21	28
893.359	28
894.509	29
895.659	25
896.81	30
897.959	30
899.109	30
900.257	24
901.407	31
902.556	32
903.705	28
904.854	31
906.001	26
907.149	34
908.298	27
909.446	28
910.592	29
911.74	31
912.888	29
914.034	27
915.181	26
916.328	33
917.473	30
918.62	27
919.766	26
920.911	30
922.058	31
923.204	26
924.348	33
925.494	28
926.638	32
927.783	28
928.928	28
930.072	25
931.216	28
932.36	27
933.504	28
934.647	25
935.791	33
936.933	32
938.077	24
939.219	26
940.363	30
941.504	20
942.647	28
943.789	26
944.932	29
946.073	30
947.215	22
948.356	31
949.498	27
950.638	29
951.778	30
952.92	30
954.06	31
955.199	29
956.34	29
957.479	24
958.62	32
959.759	27
960.898	28
962.038	30
963.176	28
964.315	27
965.453	24
966.592	28
967.73	26
968.867	24
970.006	31
971.144	30.5
972.281	30
973.418	30
974.554	25
975.692	31
976.829	27
977.965	30
979.101	23
980.237	34
981.374	24
982.509	30
983.645	30
984.78	27
985.915	24
987.05	28
988.184	22
989.319	27
990.453	25
991.589	30
992.722	28
993.856	28
994.99	26
996.123	29
997.257	22
998.39	30
999.523	25
1000.66	28
1001.79	33
1002.92	24
1004.05	26
1005.18	28
1006.32	30
1007.45	31
1008.58	30
1009.71	28
1010.84	28
1011.97	27
1013.1	26
1014.23	24
1015.36	27
1016.49	28
1017.62	29
1018.75	30
1019.88	25
1021.01	30
1022.14	29
1023.27	28
1024.4	29
1025.53	28
1026.66	27
1027.79	24
1028.91	29
1030.04	26
1031.17	29
1032.3	31
1033.42	33
1034.55	28
1035.68	24
1036.81	29
1037.93	31
1039.06	28
1040.18	35
1041.31	29
1042.44	24
1043.56	31
1044.69	24
1045.81	32
1046.94	30
1048.06	27
1049.19	28
1050.31	27
1051.44	22
1052.56	29
1053.69	22
1054.81	29
1055.93	28
1057.06	28
1058.18	24
1059.3	25
1060.43	29
1061.55	27
1062.67	26
1063.79	34
1064.92	28
1066.04	28
1067.16	31
1068.28	30
1069.4	30
1070.52	26
1071.65	24
1072.77	27
1073.89	28
1075.01	29
1076.13	28
1077.25	30
1078.37	24
1079.49	30
1080.61	26
1081.73	27
1082.85	28
1083.97	23
1085.09	27
1086.2	22
1087.32	27
1088.44	28
1089.56	26
1090.68	22
1091.8	26
1092.91	24
1094.03	24
1095.15	27
1096.26	28
1097.38	28
1098.5	29
1099.61	28
1100.73	22
1101.85	28
1102.96	28
1104.08	32
1105.19	28
1106.31	31
1107.43	26
1108.54	34
1109.66	27
1110.77	29
1111.88	18
1113	30
1114.11	22
1115.23	28
1116.34	31
1117.46	27
1118.57	32
1119.68	24
1120.8	27
1121.91	32
1123.02	30
1124.13	25
1125.25	29
1126.36	24
1127.47	30
1128.58	24
1129.69	26
1130.8	26
1131.92	22
1133.03	28
1134.14	24
1135.25	28
1136.36	26
1137.47	28
1138.58	34
1139.69	24
1140.8	26
1141.91	29
1143.02	26
1144.13	23
1145.24	29
1146.35	29
1147.46	30
1148.56	23
1149.67	29
1150.78	22
1151.89	26
1153	26
1154.1	26
1155.21	26
1156.32	30
1157.43	24
1158.53	29
1159.64	28
1160.75	29
1161.85	28
1162.96	31
1164.07	26
1165.17	32
1166.28	24
1167.38	30
1168.49	26
1169.59	26
1170.7	25
1171.8	25
1172.91	26
1174.01	28
1175.12	26
1176.22	27
1177.32	24
1178.43	27
1179.53	23
1180.64	26
1181.74	26
1182.84	24
1183.94	28
1185.05	29
1186.15	30
1187.25	25
1188.35	27
1189.46	22
1190.56	24
1191.66	28
1192.76	26
1193.86	31
1194.96	26
1196.06	28.9755
1197.16	25.9208
1198.26	27.9057
1199.37	22.2021
1200.47	25.9956
1201.57	24.0539
1202.67	24.0292
1203.77	25.0053
1204.86	29.6667
1205.96	26.0491
1207.06	23.2506
1208.16	22.4004
1209.26	27.5639
1210.36	23.8697
1211.46	27.7174
1212.56	28.9995
1213.65	25.9294
1214.75	24.0709
1215.85	27.8244
1216.95	26.1833
1218.04	23.0153
1219.14	26.3953
1220.24	29.5905
1221.33	22.9216
1222.43	26.7598
1223.53	26.9753
1224.62	25.6637
1225.72	25.9133
1226.82	24.9541
1227.91	28.442
1229.01	27.2304
1230.1	26
1231.2	27.3627
1232.29	27.2116
1233.39	29.3128
1234.48	25.5592
1235.58	30.7104
1236.67	27.973
1237.77	25.7075
1238.86	25.5417
1239.95	24.7096
1241.05	26.9511
1242.14	25.1847
1243.23	29.2714
1244.33	27.465
1245.42	27.7843
1246.51	28.7285
1247.61	25.2059
1248.7	25.79
1249.79	28.2206
1250.88	26.9832
1251.97	26.2117
1253.07	26.2916
1254.16	27.3672
1255.25	25.9435
1256.34	25.3895
1257.43	26.8319
1258.52	28.1912
1259.61	28.1929
1260.7	27.7479
1261.79	26.2925
1262.88	29.1912
1263.97	25.787
1265.06	26.7159
1266.15	27.0356
1267.24	25.6126
1268.33	30.4158
1269.42	27.4819
1270.51	29.1327
1271.6	27.988
1272.68	23.8736
1273.77	25.719
1274.86	28.5273
1275.95	26.0507
1277.04	28.6865
1278.12	26.2397
1279.21	29.3021
1280.3	28.74
1281.39	28.0826
1282.47	27.6585
1283.56	28.8687
1284.65	27.799
1285.73	26.9214
1286.82	23.3147
1287.91	22.6214
1288.99	26.2812
1290.08	25.0026
1291.16	24.4369
1292.25	30.1083
1293.33	27.1301
1294.42	24.3436
1295.5	25.1365
1296.59	27.7206
1297.67	27.6174
1298.76	26.272
1299.84	29.1153
1300.92	25.2587
1302.01	25.9559
1303.09	25.6508
1304.17	24.1723
1305.26	25.852
1306.34	23.8551
1307.34	22
1308.43	28
1309.52	26
1310.61	31
1311.7	24
1312.78	24
1313.87	29
1314.96	29
1316.04	22
1317.13	28
1318.22	23
1319.3	28
1320.39	23
1321.48	26
1322.56	28
1323.65	26
1324.73	20
1325.82	28
1326.9	26
1327.99	22
1329.07	24
1330.16	27
1331.24	24
1332.33	26
1333.41	22
1334.5	26
1335.58	24
1336.66	26
1337.75	27
1338.83	26
1339.91	26
1341	26
1342.08	24
1343.16	28
1344.24	31
1345.33	24
1346.41	24
1347.49	24
1348.57	20
1349.65	26
1350.74	24
1351.82	26
1352.9	30
1353.98	30
1355.06	31
1356.14	25
1357.22	24
1358.3	26
1359.38	24
1360.46	22
1361.54	24
1362.62	28
1363.7	30
1364.78	28
1365.86	24
1366.94	22
1368.02	28
1369.09	25
1370.17	26
1371.25	25
1372.33	25
1373.41	28
1374.48	30
1375.56	28
1376.64	24
1377.72	28
1378.79	26
1379.87	20
1380.95	22
1382.02	30
1383.1	29
1384.17	29
1385.25	26
1386.33	30
1387.4	26
1388.48	28
1389.55	26
1390.63	30
1391.7	28
1392.78	25
1393.85	29
1394.93	21
1396	26
1397.07	30
1398.15	29
1399.22	26
1400.3	28
1401.37	29
1402.44	30
1403.52	30
1404.59	22
1405.66	27
1406.73	30
1407.81	31
1408.88	33
1409.95	31
1411.02	31
1412.09	32
1413.17	30
1414.24	30
1415.31	30
1416.38	31
1417.45	33
1418.52	32
1419.59	30
1420.66	29
1421.73	29
1422.8	29
1423.87	25
1424.94	28
1426.01	33
1427.08	30
1428.15	28
1429.22	25
1430.29	29
1431.35	28
1432.42	32
1433.49	26
1434.56	28
1435.63	26
1436.69	28
1437.76	26
1438.83	24
1439.9	26
1440.96	29
1442.03	26
1443.1	26
1444.17	23
1445.23	24
1446.3	28
1447.36	30
1448.43	22
1449.49	28
1450.56	28
1451.63	26
1452.69	27
1453.76	26
1454.82	33
1455.89	29
1456.95	31
1458.01	28
1459.08	24
1460.14	28
1461.21	24
1462.27	26
1463.34	28
1464.4	27
1465.46	20
1466.52	28
1467.59	22
1468.65	32
1469.71	28
1470.77	29
1471.84	25
1472.9	26
1473.96	28
1475.02	29
1476.08	30
1477.15	28
1478.21	30
1479.27	31
1480.33	26
1481.39	25
1482.45	26
1483.51	25
1484.57	32
1485.63	28
1486.69	28
1487.75	30
1488.81	28
1489.87	31
1490.93	27
1491.99	28
1493.05	26
1494.1	28
1495.16	22
1496.22	22
1497.28	32
1498.34	28
1499.4	29
1500.45	24
1501.51	30
1502.57	30
1503.63	28
1504.68	26
1505.74	31
1506.8	32
1507.85	26
1508.91	20
1509.97	30
1511.02	30
1512.08	26
1513.13	22
1514.19	28
1515.24	25
1516.3	30
1517.35	27
1518.41	22
1519.46	31
1520.52	28
1521.57	28
1522.63	27
1523.68	26
1524.73	29
1525.79	24
1526.84	28
1527.9	30
1528.95	33
1530	25
1531.05	28
1532.11	25
1533.16	28
1534.21	27
1535.26	27
1536.32	26
1537.37	24
1538.42	30
1539.47	28
1540.52	28
1541.57	26
1542.63	26
1543.68	26
1544.73	30
1545.78	31
1546.83	26
1547.88	31
1548.93	30
1549.98	28
1551.03	28
1552.08	28
1553.13	27
1554.18	23
1555.23	27
1556.27	30
1557.32	25
1558.37	23
1559.42	27
1560.47	28
1561.52	27
1562.56	25
1563.61	26
1564.66	26
1565.71	24
1566.75	26
1567.8	24
1568.85	29
1569.9	30
1570.94	29
1571.99	24
1573.03	30
1574.08	32
1575.13	22
1576.17	28
1577.22	30
1578.26	32
1579.31	30
1580.35	24
1581.4	28
1582.44	28
1583.49	26
1584.53	26
1585.58	26
1586.62	31
1587.66	26
1588.71	22
1589.75	30
1590.8	27
1591.84	26
1592.88	28
1593.92	29
1594.97	24
1596.01	20
1597.05	28
1598.1	26
1599.14	30
1600.18	22
1601.22	28
1602.26	25
1603.3	30
1604.35	28
1605.39	24
1606.43	28
1607.47	26
1608.51	26
1609.55	29
1610.59	27
1611.63	30
1612.67	24
1613.71	24
1614.75	26
1615.79	28
1616.83	24
1617.87	28
1618.91	22
1619.95	29
1620.99	27
1622.02	29
1623.06	27
1624.1	24
1625.14	27
1626.18	32
1627.21	23
1628.25	29
1629.29	26
1630.33	27
1631.36	27
1632.4	30
1633.44	27
1634.48	31
1635.51	25
1636.55	26
1637.58	28
1638.62	29
1639.66	26
1640.69	27
1641.73	26
1642.76	22
1643.8	26
1644.83	27
1645.87	29
1646.9	22
1647.94	27
1648.97	34
1650	26
1651.04	28
1652.07	29
1653.11	28
1654.14	29
1655.17	28
1656.21	26
1657.24	29
1658.27	26
1659.31	29
1660.34	28
1661.37	30
1662.4	26
1663.43	30
1664.47	26
1665.5	26
1666.53	30
1667.56	26
1668.59	28
1669.62	25
1670.66	30
1671.69	27
1672.72	26
1673.75	30
1674.78	24
1675.81	22
1676.84	30
1677.87	32
1678.9	32
1679.93	25
1680.96	29
1681.98	22
1683.01	35
1684.04	26
1685.07	27
1686.1	27
1687.13	26
1688.16	31
1689.18	24
1690.21	25
1691.24	30
1692.27	29
1693.3	24
1694.32	25
1695.35	29
1696.38	30
1697.4	26
1698.43	20
1699.46	32
1700.48	28
1701.51	24
1702.54	26
1703.56	28
1704.59	26
1705.61	29
1706.64	32
1707.66	33
1708.69	28
1709.71	24
1710.74	28
1711.76	31
1712.79	31
1713.81	20
1714.83	26
1715.86	21
1716.88	23
1717.91	24
1718.93	27
1719.95	27
1720.98	32
1722	26
1723.02	32
1724.04	16
1725.07	29
1726.09	30
1727.11	28
1728.13	27
1729.15	29
1730.18	29
1731.2	29
1732.22	29
1733.24	24
1734.26	28
1735.28	30
1736.3	32
1737.32	28
1738.34	26
1739.36	26
1740.38	32
1741.4	26
1742.42	27
1743.44	26
1744.46	29
1745.48	25
1746.5	28
1747.52	28
1748.54	26
1749.56	29
1750.58	22
1751.6	26
1752.61	31
1753.63	31
1754.65	24
1755.67	32
1756.68	31
1757.7	32
1758.72	29
1759.74	28
1760.75	29
1761.77	28
1762.79	31
1763.8	28
1764.82	32
1765.83	22
1766.85	29
1767.87	32
1768.88	26
1769.9	26
1770.91	29
1771.93	31
1772.94	28
1773.96	29
1774.97	29
1775.99	30
1777	26
1778.02	30
1779.03	24
1780.04	26
1781.06	24
1782.07	29
1783.09	27
1784.1	30
1785.11	21
1786.13	24
1787.14	23
1788.15	28
1789.16	26
1790.18	28
1791.19	26
1792.2	20
1793.21	22
1794.22	28
1795.23	30
1796.25	26
1797.26	28
1798.27	29
1799.28	24
1800.29	26
1801.3	24
1802.31	27
1803.32	26
1804.33	25
1805.34	25
1806.35	29
1807.36	27
1808.37	28
1809.38	26
1810.39	29
1811.4	27
1812.41	26
1813.42	28
1814.42	24
1815.43	28
1816.44	26
1817.45	29
1818.46	25
1819.47	26
1820.47	30
1821.48	28
1822.49	34
1823.49	32
1824.5	26
1825.51	27
1826.52	26
1827.52	29
1828.53	27
1829.53	27
1830.54	28
1831.55	29
1832.55	30
1833.56	22
1834.56	31
1835.57	27
1836.57	28
1837.58	27
1838.58	26
1839.59	29
1840.59	28
1841.6	30
1842.6	28
1843.61	30
1844.61	25
1845.61	20
1846.62	22
1847.62	31
1848.62	23
1849.63	27
1850.63	30
1851.63	29
1852.64	30
1853.64	28
1854.64	30
1855.64	31
1856.64	32
1857.65	30
1858.65	28
1859.65	24
1860.65	28
1861.65	29
1862.65	26
1863.65	26
1864.66	28
1865.66	22
1866.66	29
1867.66	30
1868.66	33
1869.66	28
1870.66	26
1871.66	26
1872.66	27
1873.66	28
1874.66	28
1875.65	29
1876.65	32
1877.65	32
1878.65	23
1879.65	29
1880.65	27
1881.65	22
1882.64	30
1883.64	20
1884.64	29
1885.64	24
1886.63	32
1887.63	27
1888.63	24
1889.63	24
1890.62	29
1891.62	28
1892.62	24
1893.61	25
1894.61	27
1895.6	22
1896.6	18
1897.6	22
1898.59	25
1899.59	27
1900.58	31
1901.58	29
1902.57	22
1903.57	25
1904.56	22
1905.56	26
1906.55	28
1907.54	24
1908.54	29
1909.53	30
1910.53	23
1911.52	28
1912.51	24
1913.51	24
1914.5	22
1915.49	28
1916.49	27
1917.48	28
1918.47	31
1919.46	32
1920.46	21
1921.45	28
1922.44	28
1923.43	26
1924.42	27
1925.41	28
1926.41	21
1927.4	24
1928.39	28
1929.38	26
1930.37	27
1931.36	26
1932.35	29
1933.34	28
1934.33	28
1935.32	26
1936.31	26
1937.3	25
1938.29	26
1939.28	27
1940.27	28
1941.26	24
1942.24	26
1943.23	32
1944.22	28
1945.21	28
1946.2	25
1947.19	26
1948.17	27
1949.16	32
1950.15	29
1951.14	24
1952.12	31
1953.11	29
1954.1	25
1955.09	30
1956.07	27
1957.06	29
1958.05	29
1959.03	28
1960.02	28
1961	29
1961.99	28
1962.98	26
1963.96	31
1964.95	30
1965.93	28
1966.92	27
1967.9	24
1968.89	26
1969.87	26
1970.85	29
1971.84	20
1972.82	25
1973.81	27
1974.79	24
1975.78	25
1976.76	22
1977.74	26
1978.73	24
1979.71	28
1980.69	25
1981.67	28
1982.66	28
1983.64	28
1984.62	20
1985.6	28
1986.59	26
1987.57	23
1988.55	28
1989.53	26
1990.51	30
1991.49	30
1992.47	31
1993.45	29
1994.44	25
1995.42	24
1996.4	27
1997.38	27
1998.36	25
1999.34	29
2000.32	26
2001.3	30
2002.28	29
2003.26	28
2004.24	24
2005.22	26
2006.19	30
2007.17	22
2008.15	24
2009.13	28
2010.11	29
2011.09	25
2012.06	27
2013.04	24
2014.02	24
2015	31
2015.98	27
2016.95	28
2017.93	24
2018.91	27
2019.88	27
2020.86	26
2021.84	24
2022.81	24
2023.79	26
2024.77	26
2025.74	28
2026.72	26
2027.69	24
2028.67	27
2029.65	24
2030.62	30
2031.6	27
2032.57	29
2033.55	31
2034.52	20
2035.5	22
2036.47	22
2037.44	26
2038.42	30
2039.39	18
2040.36	30
2041.34	22
2042.31	24
2043.29	28
2044.26	26
2045.23	25
2046.2	27
2047.18	28
2048.15	23
2049.12	25
2050.09	28
2051.07	29
2052.04	29
2053.01	28
2053.98	27
2054.95	22
2055.93	28
2056.9	27
2057.87	24
2058.84	26
2059.81	30
2060.78	24
2061.75	28
2062.72	29
2063.69	26
2064.66	29
2065.63	25
2066.6	22
2067.57	24
2068.54	26
2069.51	30
2070.48	29
2071.45	23
2072.42	25
2073.38	26
2074.35	23
2075.32	22
2076.29	31
2077.26	23
2078.23	20
2079.19	28
2080.16	27
2081.13	24
2082.1	28
2083.06	26
2084.03	30
2085	26
2085.96	24
2086.93	23
2087.9	26
2088.86	26
2089.83	24
2090.8	28
2091.76	25
2092.73	24
2093.69	24
2094.66	26
2095.62	22
2096.59	24
2097.55	25
2098.52	22
2099.48	23
2100.45	28
2101.41	20
2102.38	29
2103.34	24
2104.31	27
2105.27	27
2106.23	28
2107.2	30
2108.16	29
2109.12	22
2110.09	26
2111.05	25
2112.01	28
2112.98	26
2113.94	26
2114.9	26
2115.86	26
2116.82	27
2117.79	29
2118.75	26
2119.71	28
2120.67	28
2121.63	24
2122.59	31
2123.55	24
2124.52	25
2125.48	26
2126.44	29
2127.4	27
2128.36	26
2129.32	22
2130.28	20
2131.24	21
2132.2	26
2133.16	25
2134.12	25
2135.08	22
2136.04	25
2136.99	23
2137.95	26
2138.91	26
2139.87	24
2140.83	26
2141.79	26
2142.75	17
2143.7	24
2144.66	30
2145.62	27.9795
2146.58	25.9465
2147.53	28.9306
2148.49	26.063
2149.45	23.1324
2150.41	22.2272
2151.36	26.187
2152.32	24.2675
2153.27	22.0046
2154.23	28.4654
2155.19	26.2106
2156.14	24.5404
2157.1	24.8775
2158.06	26.6029
2159.01	22.3065
2159.97	24.0411
2160.92	23.8507
2161.88	23.0276
2162.83	27.0032
2163.79	26.7647
2164.74	27.6018
2165.7	21.2647
2166.65	28.1208
2167.61	23.3685
2168.56	27.2402
2169.51	26.2574
2170.47	23.525
2171.42	22.2588
2172.38	27.7773
2173.33	24.7958
2174.28	26.8645
2175.24	23.8029
2176.19	26.109
2177.14	23.833
2178.09	27.4454
2179.05	22.6741
2180	24.1742
2180.95	24.4655
2181.9	25.2089
2182.86	27.0637
2183.81	19.9522
2184.76	25.4522
2185.71	23.3817
2186.66	25.9265
2187.61	23.2541
2188.57	25.1116
2189.52	24.2077
2190.47	23.1323
2191.42	25.385
2192.37	24.2794
2193.32	25.6906
2194.27	22.6157
2195.22	25.2
2196.17	23.8435
2197.12	23.2684
2198.07	26.3058
2199.02	27.0043
2199.97	26.1052
2200.92	27.6545
2201.87	26.2916
2202.82	24.2471
2203.76	22.5765
2204.71	23.0057
2205.66	27.1324
2206.61	23.313
2207.56	23.6991
2208.51	24.9934
2209.45	20.9956
2210.4	24.0026
2211.35	25.0441
2212.3	23.4398
2213.24	23.6083
2214.19	23.6164
2215.14	26.6833
2216.09	25.9607
2217.03	25.2895
2217.98	24.0651
2218.93	25.2402
2219.87	22.0783
2220.82	26.9493
2221.77	27.5242
2222.71	27.7475
2223.66	24.6591
2224.6	22.172
2225.55	22.5147
2226.49	26.2098
2227.44	24.6381
2228.38	24.9483
2229.33	26.8566
2230.27	25.501
2231.22	24.4522
2232.16	25.4629
2233.11	25.8137
2234.05	23.9581
2235	24.3609
2235.94	26.2086
2236.88	24.8489
2237.83	22.9853
2238.77	25.5149
2239.71	26.2263
2240.66	25.576
2241.6	23.684
2242	22
2242.95	26
2243.9	27
2244.84	27
2245.79	24
2246.74	22
2247.69	24
2248.63	27
2249.58	24
2250.53	27
2251.47	25
2252.42	22
2253.37	23
2254.31	25
2255.26	28
2256.2	24
2257.15	25
2258.1	24
2259.04	25
2259.99	20
2260.93	26
2261.88	28
2262.82	28
2263.77	25
2264.71	20
2265.65	24
2266.6	22
2267.54	25
2268.49	26
2269.43	26
2270.38	25
2271.32	30
2272.26	27
2273.21	29
2274.15	28
2275.09	23
2276.04	25
2276.98	22
2277.92	24
2278.86	24
2279.81	26
2280.75	30
2281.69	23
2282.63	24
2283.57	25
2284.52	24
2285.46	30
2286.4	28
2287.34	22
2288.28	24
2289.22	27
2290.16	26
2291.1	22
2292.04	30
2292.98	24
2293.93	22
2294.86	22
2295.8	28
2296.74	26
2297.69	29
2298.62	29
2299.56	26
2300.5	27
2301.44	24
2302.38	25
2303.32	26
2304.26	24
2305.2	25
2306.14	28
2307.07	28
2308.01	26
2308.95	25
2309.89	30
2310.83	26
2311.76	24
2312.7	23
2313.64	26
2314.58	26
2315.51	27
2316.45	26
2317.39	27
2318.32	23
2319.26	28
2320.2	26
2321.13	23
2322.07	26
2323	21
2323.94	22
2324.88	26
2325.81	24
2326.75	26
2327.68	22
2328.62	27
2329.55	24
2330.49	30
2331.42	25
2332.36	26
2333.29	27
2334.22	29
2335.16	27
2336.09	28
2337.03	33
2337.96	26
2338.89	20
2339.83	28
2340.76	31
2341.69	26
2342.63	25
2343.56	27
2344.49	26
2345.43	26
2346.36	26
2347.29	20
2348.22	28
2349.15	24
2350.09	26
2351.02	27
2351.95	33
2352.88	28
2353.81	26
2354.74	24
2355.67	34
2356.61	27
2357.54	20
2358.47	27
2359.4	26
2360.33	30
2361.26	20
2362.19	20
2363.12	28
2364.05	31
2364.98	24
2365.91	28
2366.84	30
2367.77	27
2368.7	28
2369.62	30
2370.55	18
2371.48	26
2372.41	28
2373.34	26
2374.27	27
2375.2	29
2376.12	28
2377.05	23
2377.98	29
2378.91	22
2379.83	31
2380.76	28
2381.69	23
2382.62	30
2383.54	22
2384.47	25
2385.4	26
2386.32	28
2387.25	30
2388.18	27
2389.1	26
2390.03	26
2390.95	29
2391.88	26
2392.81	28
2393.73	25
2394.66	27
2395.58	30
2396.51	25
2397.43	26
2398.36	25
2399.28	31
2400.2	24
2401.13	22
2402.05	27
2402.98	28
2403.9	24
2404.83	27
2405.75	27
2406.67	23
2407.6	26
2408.52	30
2409.44	23
2410.37	26
2411.29	30
2412.21	27
2413.13	20
2414.06	20
2414.98	29
2415.9	25
2416.82	26
2417.74	28
2418.67	25
2419.59	31
2420.51	28
2421.43	22
2422.35	27
2423.27	22
2424.19	26
2425.11	29
2426.03	24
2426.96	29
2427.88	24
2428.8	27
2429.72	26
2430.64	26
2431.56	26
2432.48	26
2433.39	29
2434.31	24
2435.23	18
2436.15	27
2437.07	24
2437.99	30
2438.91	27
2439.83	27
2440.75	29
2441.67	28
2442.58	22
2443.5	31
2444.42	22
2445.34	29
2446.26	30
2447.17	28
2448.09	26
2449.01	27
2449.92	26
2450.84	29
2451.76	22
2452.68	28
2453.59	30
2454.51	29
2455.42	28
2456.34	24
2457.26	26
2458.17	25
2459.09	23
2460	29
2460.92	26
2461.83	22
2462.75	24
2463.66	30
2464.58	25
2465.49	26
2466.41	27
2467.32	20
2468.24	26
2469.15	26
2470.07	26
2470.98	24
2471.89	29
2472.81	27
2473.72	26
2474.64	27
2475.55	22
2476.46	24
2477.37	26
2478.29	20
2479.2	28
2480.11	26
2481.03	29
2481.94	27
2482.85	31
2483.76	24
2484.67	33
2485.59	28
2486.5	22
2487.41	28
2488.32	32
2489.23	26
2490.14	27
2491.05	26
2491.97	26
2492.88	28
2493.79	27
2494.7	30
2495.61	26
2496.52	26
2497.43	29
2498.34	24
2499.25	24
2500.16	27
2501.07	26
2501.98	28
2502.89	29
2503.79	24
2504.7	28
2505.61	22
2506.52	32
2507.43	32
2508.34	32
2509.25	24
2510.16	26
2511.06	25
2511.97	26
2512.88	27
2513.79	30
2514.69	33
2515.6	26
2516.51	26
2517.42	24
2518.32	30
2519.23	29
2520.14	28
2521.04	29
2521.95	24
2522.86	28
2523.76	22
2524.67	22
2525.57	30
2526.48	28
2527.39	32
2528.29	28
2529.2	20
2530.1	26
2531.01	24
2531.91	28
2532.82	27
2533.72	28
2534.63	29
2535.53	26
2536.44	31
2537.34	25
2538.24	28
2539.15	28
2540.05	27
2540.96	28
2541.86	24
2542.76	26
2543.67	29
2544.57	29
2545.47	29
2546.37	23
2547.28	24
2548.18	25
2549.08	29
2549.99	27
2550.89	27
2551.79	26
2552.69	25
2553.59	25
2554.49	30
2555.4	26
2556.3	32
2557.2	23
2558.1	25
2559	26
2559.9	25
2560.8	23
2561.7	29
2562.6	23
2563.5	25
2564.4	29
2565.3	30
2566.2	29
2567.1	29
2568	23
2568.9	27
2569.8	22
2570.7	22
2571.6	23
2572.5	27
2573.4	30
2574.3	31
2575.2	29
2576.1	24
2576.99	22
2577.89	22
2578.79	29
2579.69	24
2580.59	26
2581.48	30
2582.38	29
2583.28	28
2584.18	29
2585.07	25
2585.97	27
2586.87	28
2587.76	27
2588.66	31
2589.56	29
2590.45	32
2591.35	29
2592.25	27
2593.14	28
2594.04	27
2594.93	28
2595.83	22
2596.73	23
2597.62	24
2598.52	20
2599.41	28
2600.31	28
2601.2	26
2602.1	30
2602.99	31
2603.88	27
2604.78	26
2605.67	26
2606.57	24
2607.46	31
2608.35	29
2609.25	26
2610.14	24
2611.03	25
2611.93	24
2612.82	27
2613.71	32
2614.61	26
2615.5	27
2616.39	27
2617.29	30
2618.18	27
2619.07	29
2619.96	28
2620.85	29
2621.75	28
2622.64	29
2623.53	31
2624.42	26
2625.31	30
2626.2	33
2627.09	32
2627.98	28
2628.88	25
2629.77	28
2630.66	28
2631.55	31
2632.44	29
2633.33	24
2634.22	32
2635.11	26
2636	27
2636.89	22
2637.78	26
2638.66	26
2639.55	26
2640.44	24
2641.33	27
2642.22	31
2643.11	30
2644	27
2644.89	26
2645.78	24
2646.66	23
2647.55	30
2648.44	26
2649.33	24
2650.21	28
2651.1	20
2651.99	28
2652.88	26
2653.76	28
2654.65	28
2655.54	24
2656.42	30
2657.31	27
2658.2	28
2659.08	24
2659.97	22
2660.86	30
2661.74	27
2662.63	26
2663.51	29
2664.4	27
2665.29	31
2666.17	23
2667.06	30
2667.94	25
2668.83	29
2669.71	30
2670.6	29
2671.48	28
2672.36	29
2673.25	24
2674.13	26
2675.02	24
2675.9	28
2676.78	29
2677.67	22
2678.55	28
2679.43	27
2680.32	25
2681.2	30
2682.08	28
2682.97	28
2683.85	24
2684.73	28
2685.61	29
2686.5	29
2687.38	24
2688.26	25
2689.14	30
2690.03	26
2690.91	24
2691.79	28
2692.67	29
2693.55	20
2694.43	21
2695.31	30
2696.19	24
2697.08	28
2697.96	22
2698.84	26
2699.72	27
2700.6	24
2701.48	27
2702.36	22
2703.24	22
2704.12	30
2705	30
2705.88	26
2706.76	30
2707.64	26
2708.51	26
2709.39	25
2710.27	29
2711.15	26
2712.03	27
2712.91	24
2713.79	30
2714.67	26
2715.54	29
2716.42	28
2717.3	28
2718.18	23
2719.05	28
2719.93	20
2720.81	23
2721.69	31
2722.56	30
2723.44	28
2724.32	30
2725.19	22
2726.07	28
2726.95	26
2727.82	26
2728.7	27
2729.58	26
2730.45	29
2731.33	25
2732.2	32
2733.08	29
2733.95	29
2734.83	30
2735.7	25
2736.58	32
2737.45	29
2738.33	28
2739.2	29
2740.08	26
2740.95	30
2741.83	21
2742.7	26
2743.58	24
2744.45	24
2745.32	26
2746.2	28
2747.07	28
2747.94	26
2748.82	26
2749.69	24
2750.56	26
2751.44	29
2752.31	28
2753.18	25
2754.05	27
2754.93	29
2755.8	26
2756.67	28
2757.54	29
2758.42	27
2759.29	24
2760.16	26
2761.03	26
2761.9	26
2762.77	24
2763.64	28
2764.51	29
2765.38	24
2766.26	28
2767.13	29
2768	25
2768.87	20
2769.74	26
2770.61	26
2771.48	28
2772.35	30
2773.22	28
2774.09	23
2774.96	26
2775.83	32
2776.7	29
2777.56	26
2778.43	26
2779.3	29
2780.17	25
2781.04	29
2781.91	27
2782.78	28
2783.64	24
2784.51	25
2785.38	22
2786.25	26
2787.12	29
2787.98	24
2788.85	26
2789.72	26
2790.59	27
2791.45	27
2792.32	26
2793.19	25
2794.05	28
2794.92	31
2795.79	28
2796.65	25
2797.52	20
2798.38	26
2799.25	26
2800.12	27
2800.98	27
2801.85	31
2802.71	26
2803.58	31.5
2804.44	32
2805.31	31
2806.17	24
2807.04	24
2807.9	31
2808.77	28
2809.63	30
2810.5	29
2811.36	29
2812.22	31
2813.09	28
2813.95	27
2814.82	26
2815.68	28
2816.54	27
2817.41	30
2818.27	28
2819.13	26
2820	28
2820.86	26
2821.72	26
2822.58	24
2823.45	27
2824.31	24
2825.17	26
2826.03	28
2826.9	25
2827.76	29
2828.62	24
2829.48	28
2830.34	26
2831.2	29
2832.06	29
2832.92	27
2833.79	27
2834.65	20
2835.51	26
2836.37	26
2837.23	29
2838.09	23
2838.95	20
2839.81	31
2840.67	28
2841.53	31
2842.39	31
2843.25	34
2844.11	27
2844.97	32
2845.83	30
2846.68	24
2847.54	29
2848.4	29
2849.26	24
2850.12	24
2850.98	22
2851.84	26
2852.69	28
2853.55	26
2854.41	28
2855.27	28
2856.13	28
2856.98	32
2857.84	20
2858.7	30
2859.56	28
2860.41	29
2861.27	25
2862.13	24
2862.98	32
2863.84	30
2864.7	26
2865.55	24
2866.41	28
2867.27	32
2868.12	24
2868.98	26
2869.83	33
2870.69	33
2871.54	29
2872.4	30
2873.25	29
2874.11	32
2874.96	31
2875.82	22
2876.68	33
2877.53	24
2878.38	31
2879.24	32
2880.09	33
2880.95	30
2881.8	35
2882.65	32
2883.51	30
2884.36	36
2885.22	33
2886.07	34
2886.92	35
2887.77	31
2888.63	33
2889.48	34
2890.33	36
2891.19	41
2892.04	38
2892.89	40
2893.74	38
2894.6	41
2895.45	46
2896.3	47
2897.15	41
2898	36
2898.85	48
2899.71	52
2900.56	48
2901.41	54
2902.26	63
2903.11	52
2903.96	54
2904.81	61
2905.66	62
2906.51	54
2907.36	63
2908.21	55
2909.06	54
2909.91	52
2910.76	56
2911.61	50
2912.46	50
2913.31	50
2914.16	51
2915.01	43
2915.86	44
2916.71	40
2917.56	38
2918.41	32
2919.26	38
2920.1	36
2920.95	37
2921.8	34
2922.65	37
2923.5	32
2924.34	35
2925.19	28
2926.04	33
2926.89	31
2927.74	32
2928.58	32
2929.43	28
2930.28	29
2931.12	25
2931.97	28
2932.82	30
2933.66	29
2934.51	32
2935.36	26
2936.2	26
2937.05	34
2937.89	29
2938.74	28
2939.59	29
2940.43	29
2941.28	28
2942.12	28
2942.97	32
2943.81	24
2944.66	27
2945.5	30
2946.35	32
2947.19	28
2948.04	32
2948.88	30
2949.72	27
2950.57	27
2951.41	34
2952.26	29
2953.1	31
2953.94	35
2954.79	36
2955.63	30
2956.47	30
2957.32	32
2958.16	30
2959	34
2959.85	36
2960.69	38
2961.53	36
2962.37	36
2963.22	40
2964.06	34
2964.9	36
2965.74	36
2966.58	40
2967.42	38
2968.27	37
2969.11	41
2969.95	36
2970.79	39
2971.63	37
2972.47	34
2973.31	40
2974.15	35
2974.99	32
2975.83	32
2976.68	35
2977.52	32
2978.36	30
2979.2	31
2980.04	34
2980.88	20
2981.71	31
2982.55	28
2983.39	28
2984.23	28
2985.07	32
2985.91	21
2986.75	20
2987.59	28
2988.43	35
2989.27	26
2990.1	26
2990.94	30
2991.78	22
2992.62	28
2993.46	32
2994.3	28
2995.13	27
2995.97	30
2996.81	27
2997.64	29
2998.48	26
2999.32	21
