#Acq. time (s)=	3
#Accumulations=	3
#Range (cm-¹)=	100...3000
#Windows=	3
#Autofocus=	Off
#AutoExposure=	Off
#Spike filter=	Multiple accum.
#Delay time (s)=	0
#Binning=	1
#Readout mode=	Signal
#DeNoise=	Off
#ICS correction=	Off
#Dark correction=	Off
#Inst. Process=	Off
#Instrument=	LabRAM HR Evol
#Detector=	Syncerity OE
#Objective=	x100_VIS_LWD
#Grating=	600 (500nm)
#ND Filter=	25%
#Laser=	633nm_Edge
#Hole=	100.021
#Range=	Visible
#Project=	Bolus
#Sample=	A5
#Site=	stripside
#Title=	m09
#Remark=	
#Date=	03.11.2025 16:30
#Acquired=	03.11.2025 16:30:16
100.969	34
102.252	39
103.535	36
104.818	38
106.101	34
107.384	33
108.666	34
109.948	33
111.232	33
112.514	32
113.795	36
115.077	34
116.358	33
117.639	33
118.919	39
120.2	36
121.48	34
122.76	37
124.04	32
125.32	32
126.599	36
127.879	32
129.158	35
130.436	36
131.715	41
132.992	37
134.27	36
135.548	32
136.826	39
138.104	36
139.381	38
140.658	34
141.935	38
143.212	38
144.489	44
145.763	42
147.04	32
148.315	45
149.591	42
150.867	40
152.142	42
153.416	40
154.691	47
155.965	44
157.24	38
158.514	42
159.786	46
161.06	46
162.334	39
163.607	43
164.881	43
166.152	38
167.425	43
168.698	41
169.969	40
171.241	42
172.513	40
173.785	40
175.055	38
176.326	41
177.597	44
178.867	44
180.137	43
181.408	38
182.677	36
183.947	41
185.217	46
186.485	32
187.755	48
189.022	42
190.291	47
191.56	39
192.828	44
194.096	42
195.363	40
196.631	44
197.899	48
199.165	43
200.432	41
201.698	40
202.965	43
204.23	34
205.497	40
206.762	42
208.028	40
209.293	39
210.559	36
211.823	35
213.088	33
214.352	32
215.617	32
216.88	38
218.145	39
219.408	39
220.672	38
221.934	36
223.196	38
224.46	36
225.722	34
226.985	38
228.246	34
229.508	38
230.77	30
232.031	35
233.292	36
234.554	34
235.814	32
237.074	40
238.335	32
239.595	33
240.854	30
242.115	38
243.374	34
244.633	36
245.893	33
247.151	37
248.409	29
249.667	33
250.927	36
252.184	32
253.442	37
254.699	34
255.957	35
257.214	30
258.47	34
259.727	34
260.983	35
262.24	34
263.496	34
264.752	33
266.007	32
267.262	33
268.517	30
269.773	35
271.028	34
272.282	30
273.536	32
274.79	34
276.044	33
277.297	30
278.551	30
279.804	38
281.057	36
282.31	26
283.564	28
284.816	34
286.068	36
287.32	34
288.572	31
289.823	34
291.074	32
292.325	35
293.576	33
294.827	34
296.077	33
297.328	33
298.578	32
299.828	30
301.077	30
302.325	32
303.575	36
304.824	26
306.073	32
307.321	30
308.57	30
309.818	35
311.066	30
312.314	31
313.562	29
314.808	30
316.055	33
317.302	30
318.549	32
319.796	33
321.042	32
322.288	31
323.533	34
324.779	33
326.024	33
327.27	38
328.515	30
329.759	34
331.004	26
332.248	33
333.493	28
334.736	33
335.98	33
337.223	26
338.466	36
339.709	35
340.952	30
342.195	31
343.437	30
344.68	32
345.922	33
347.163	30
348.405	32
349.647	33
350.887	34
352.128	33
353.37	35
354.609	37
355.85	33
357.089	32
358.33	33
359.57	29
360.809	34
362.049	36
363.287	33
364.526	36
365.764	35
367.003	32
368.241	26
369.479	36
370.718	32
371.955	28
373.193	33
374.429	34
375.667	33
376.903	30
378.139	31
379.376	33
380.611	30
381.848	35
383.083	24
384.319	28
385.554	29
386.79	32
388.024	30
389.258	32
390.493	28
391.727	34
392.962	32
394.195	34
395.428	31
396.663	32
397.895	35
399.128	31
400.361	40
401.593	36
402.825	30
404.058	29
405.29	35
406.521	26
407.752	32
408.985	30
410.215	28
411.446	28
412.678	29
413.908	32
415.138	28
416.367	27
417.597	32
418.828	29
420.057	26
421.286	33
422.514	30
423.743	32
424.973	30
426.201	32
427.429	31
428.657	28
429.884	32
431.112	28
432.34	29
433.567	34
434.794	31
436.02	32
437.247	28
438.473	36
439.699	29
440.925	32
442.15	31
443.376	34
444.601	31
445.826	31
447.051	34
448.275	36
449.5	34
450.724	33
451.948	32
453.172	31
454.396	34
455.619	32
456.842	33
458.065	30
459.288	38
460.511	36
461.733	35
462.956	38
464.178	34
465.4	29
466.621	34
467.843	37
469.064	38
470.285	39
471.505	35
472.726	36
473.946	42
475.166	40
476.387	39
477.606	45
478.825	43
480.044	44
481.264	51
482.483	38
483.702	55
484.921	59
486.138	56
487.356	53
488.574	54
489.792	56
491.009	61
492.226	54
493.444	52
494.661	46
495.877	52
497.094	49
498.31	49
499.525	40
500.741	42
501.958	36
503.172	43
504.388	42
505.603	42
506.817	40
508.032	40
509.247	40
510.46	40
511.675	37
512.888	42
514.102	34
515.316	32
516.528	31
517.742	33
518.954	34
520.167	34
521.378	33
522.591	35
523.802	37
525.015	32
526.226	32
527.438	30
528.648	30
529.86	33
531.07	33
532.281	36
533.491	32
534.702	35
535.911	30
537.121	28
538.33	28
539.54	33
540.749	32
541.957	33
543.167	32
544.375	32
545.584	32
546.791	32
547.999	34
549.207	30
550.414	32
551.621	32
552.829	32
554.035	28
555.241	26
556.449	36
557.655	29
558.86	33
560.066	30
561.272	30
562.477	30
563.682	32
564.888	33
566.093	34
567.297	28
568.501	35
569.705	32
570.91	34
572.114	31
573.317	31
574.52	26
575.723	30
576.927	32
578.13	33
579.332	30
580.535	31
581.737	30
582.938	36
584.14	31
585.343	31
586.544	36
587.745	34
588.946	26
590.147	30
591.347	30
592.548	36
593.748	30
594.948	28
596.147	34
597.347	30
598.546	28
599.745	27
600.944	35
602.143	31
603.342	30
604.54	29
605.738	36
606.937	34
608.134	33
609.332	32
610.529	27
611.727	30
612.924	33
614.121	26
615.317	26
616.513	32
617.709	34
618.905	28
620.101	27
621.297	33
622.492	36
623.688	36
624.883	37
626.077	33
627.271	32
628.466	32
629.66	32
630.855	28
632.047	32
633.241	35
634.435	32
635.629	35
636.82	28
638.014	32
639.207	28
640.399	31
641.59	28
642.783	32
643.975	31
645.166	36
646.357	32
647.549	36
648.741	35
649.93	33
651.122	32
652.311	30
653.502	32
654.692	33
655.881	34
657.071	31
658.261	30
659.45	33
660.639	34
661.827	34
663.016	36
664.204	32
665.393	32
666.581	32
667.769	32
668.957	30
670.143	31
671.331	31
672.518	37
673.705	35
674.891	30
676.078	36
677.264	35
678.451	34
679.636	32
680.821	34
682.007	28
683.192	37
684.378	37
685.562	38
686.747	38
687.931	38
689.115	38
690.3	34
691.483	38
692.666	33
693.851	33
695.034	36
696.216	37
697.4	38
698.582	36
699.764	34
700.948	39
702.129	40
703.311	35
704.493	42
705.674	43
706.855	40
708.036	48
709.218	54
710.399	48
711.579	43
712.759	40
713.939	43
715.12	43
716.299	36
717.478	35
718.657	34
719.836	36
721.015	37
722.195	37
723.373	33
724.552	32
725.729	36
726.907	32
728.085	32
729.262	32
730.44	32
731.617	24
732.795	31
733.972	30
735.148	31
736.324	29
737.501	30
738.677	26
739.852	30
741.028	32
742.203	31
743.379	28
744.554	31
745.729	32
746.903	34
748.078	30
749.252	29
750.426	28
751.599	35
752.772	28
753.946	32
755.119	32
756.293	30
757.466	33
758.639	31
759.811	32
760.984	28
762.155	30
763.327	28
764.499	32
765.67	30
766.842	29
768.013	35
769.183	30
770.354	31
771.525	29
772.696	34
773.865	28
775.035	30
776.205	26
777.375	28
778.544	28
779.713	29
780.882	35
782.052	35
783.219	30
784.388	35
785.557	30
786.724	36
787.892	30
789.06	35
790.227	35
791.395	32
792.562	28
793.728	32
794.895	31
796.061	28
797.228	30
798.395	28
799.56	32
800.726	33
801.891	30
803.057	26
804.221	31
805.387	22
806.551	30
807.716	34
808.879	26
810.044	30
811.208	32
812.372	32
813.535	32
814.699	31
815.862	34
817.025	31
818.188	30
819.351	33
820.513	29
821.675	29
822.837	33
823.999	32
825.161	30
826.322	30
827.483	30
828.645	24
829.805	32
830.966	29
832.127	36
833.287	29
834.447	30
835.607	28
836.767	31
837.926	32
839.085	31
840.245	30
841.404	26
842.562	36
843.72	33
844.88	38
846.038	36
847.195	33
848.353	26
849.512	30
850.669	30
851.826	32
852.983	32
854.139	35
855.296	30
856.453	26
857.609	30
858.765	33
859.921	28
861.077	32
862.232	29
863.387	36
864.542	27
865.697	33
866.852	36
868.008	32
869.162	33
870.316	33
871.47	29
872.624	27
873.778	31
874.931	31
876.084	28
877.237	32
878.39	32
879.543	26
880.695	30
881.846	35
882.999	29
884.151	29
885.302	28
886.454	28
887.606	28
888.757	32
889.908	31
891.059	31
892.21	34
893.359	32
894.509	27
895.659	28
896.81	26
897.959	30
899.109	30
900.257	27
901.407	34
902.556	28
903.705	31
904.854	30
906.001	32
907.149	27
908.298	34
909.446	30
910.592	36
911.74	26
912.888	28
914.034	28
915.181	33
916.328	33
917.473	35
918.62	35
919.766	30
920.911	32
922.058	26
923.204	32
924.348	31
925.494	30
926.638	31
927.783	31
928.928	28
930.072	30
931.216	26
932.36	27
933.504	26
934.647	30
935.791	29
936.933	32
938.077	33
939.219	31
940.363	32
941.504	26
942.647	28
943.789	30
944.932	22
946.073	26
947.215	30
948.356	25
949.498	26
950.638	29
951.778	32
952.92	29
954.06	30
955.199	37
956.34	28
957.479	33
958.62	27
959.759	33
960.898	24
962.038	30
963.176	30
964.315	29
965.453	24
966.592	30
967.73	34
968.867	32
970.006	27
971.144	28.5
972.281	30
973.418	30
974.554	29
975.692	35
976.829	26
977.965	32
979.101	32
980.237	31
981.374	30
982.509	29
983.645	31
984.78	30
985.915	28
987.05	30
988.184	24
989.319	24
990.453	32
991.589	29
992.722	29
993.856	27
994.99	30
996.123	32
997.257	33
998.39	34
999.523	27
1000.66	28
1001.79	32
1002.92	27
1004.05	26
1005.18	31
1006.32	27
1007.45	28
1008.58	28
1009.71	26
1010.84	30
1011.97	32
1013.1	24
1014.23	29
1015.36	31
1016.49	30
1017.62	34
1018.75	28
1019.88	31
1021.01	29
1022.14	33
1023.27	28
1024.4	30
1025.53	27
1026.66	30
1027.79	32
1028.91	33
1030.04	27
1031.17	29
1032.3	27
1033.42	32
1034.55	30
1035.68	28
1036.81	30
1037.93	24
1039.06	31
1040.18	28
1041.31	28
1042.44	29
1043.56	29
1044.69	30
1045.81	31
1046.94	30
1048.06	30
1049.19	30
1050.31	26
1051.44	30
1052.56	30
1053.69	34
1054.81	18
1055.93	24
1057.06	32
1058.18	32
1059.3	27
1060.43	28
1061.55	27
1062.67	26
1063.79	32
1064.92	28
1066.04	30
1067.16	28
1068.28	26
1069.4	30
1070.52	27
1071.65	30
1072.77	32
1073.89	34
1075.01	32
1076.13	31
1077.25	26
1078.37	32
1079.49	32
1080.61	29
1081.73	30
1082.85	28
1083.97	29
1085.09	28
1086.2	32
1087.32	28
1088.44	32
1089.56	29
1090.68	30
1091.8	25
1092.91	30
1094.03	28
1095.15	27
1096.26	28
1097.38	30
1098.5	28
1099.61	30
1100.73	26
1101.85	32
1102.96	26
1104.08	26
1105.19	26
1106.31	24
1107.43	30
1108.54	29
1109.66	29
1110.77	26
1111.88	26
1113	24
1114.11	34
1115.23	26
1116.34	29
1117.46	30
1118.57	29
1119.68	34
1120.8	26
1121.91	24
1123.02	29
1124.13	28
1125.25	26
1126.36	30
1127.47	32
1128.58	30
1129.69	30
1130.8	31
1131.92	29
1133.03	24
1134.14	30
1135.25	26
1136.36	33
1137.47	24
1138.58	28
1139.69	26
1140.8	28
1141.91	34
1143.02	26
1144.13	30
1145.24	30
1146.35	28
1147.46	28
1148.56	32
1149.67	29
1150.78	32
1151.89	28
1153	27
1154.1	26
1155.21	27
1156.32	25
1157.43	28
1158.53	31
1159.64	30
1160.75	29
1161.85	29
1162.96	28
1164.07	30
1165.17	28
1166.28	33
1167.38	28
1168.49	25
1169.59	30
1170.7	28
1171.8	30
1172.91	29
1174.01	28
1175.12	28
1176.22	31
1177.32	29
1178.43	26
1179.53	30
1180.64	30
1181.74	30
1182.84	26
1183.94	27
1185.05	26
1186.15	29
1187.25	22
1188.35	26
1189.46	29
1190.56	32
1191.66	31
1192.76	28
1193.86	26
1194.96	26
1196.06	26.0098
1197.16	29.9706
1198.26	31.9294
1199.37	26.1373
1200.47	26.1037
1201.57	30.8725
1202.67	26.2204
1203.77	27.8765
1204.86	28.8932
1205.96	28.034
1207.06	29.6957
1208.16	29.5413
1209.26	29.641
1210.36	29.7312
1211.46	26.0715
1212.56	29.847
1213.65	24.4147
1214.75	25.6484
1215.85	28.0763
1216.95	29.9162
1218.04	26.6878
1219.14	30.112
1220.24	29.7953
1221.33	27.365
1222.43	25.6945
1223.53	27.7747
1224.62	28.9608
1225.72	27.2055
1226.82	33.0041
1227.91	30.2892
1229.01	29.789
1230.1	28.0818
1231.2	26.7437
1232.29	25.4669
1233.39	29.4649
1234.48	29.8631
1235.58	28.8632
1236.67	27.1348
1237.77	27.198
1238.86	26.0603
1239.95	23.3413
1241.05	26.5931
1242.14	27.1667
1243.23	29.5962
1244.33	29.7847
1245.42	30.5999
1246.51	27.1878
1247.61	27.3351
1248.7	29.308
1249.79	26.0735
1250.88	29.1473
1251.97	28.3414
1253.07	29.6353
1254.16	32.4189
1255.25	30.6903
1256.34	28.9811
1257.43	29.8374
1258.52	30.5
1259.61	28.8529
1260.7	28.3339
1261.79	29.6675
1262.88	30.5853
1263.97	31.0125
1265.06	28.794
1266.15	26.5199
1267.24	30.0762
1268.33	28.4882
1269.42	27.6742
1270.51	26.3243
1271.6	28.7946
1272.68	27.7875
1273.77	30.6161
1274.86	31.0556
1275.95	26.2478
1277.04	24.0802
1278.12	29.7594
1279.21	30.1458
1280.3	28.1695
1281.39	29.7696
1282.47	29.7081
1283.56	28.4323
1284.65	29.5716
1285.73	28.2785
1286.82	28.7268
1287.91	26.1955
1288.99	29.4844
1290.08	28.9638
1291.16	22.8267
1292.25	28.4813
1293.33	23.1029
1294.42	23.3743
1295.5	26.6847
1296.59	31.2187
1297.67	29.5094
1298.76	26.9798
1299.84	24.8577
1300.92	30.0752
1302.01	32.307
1303.09	27.212
1304.17	28.766
1305.26	26.1852
1306.34	29.237
1307.34	32
1308.43	29
1309.52	25
1310.61	28
1311.7	31
1312.78	24
1313.87	26
1314.96	30
1316.04	30
1317.13	28
1318.22	32
1319.3	29
1320.39	32
1321.48	29
1322.56	28
1323.65	27
1324.73	28
1325.82	32
1326.9	29
1327.99	33
1329.07	30
1330.16	33
1331.24	28
1332.33	25
1333.41	27
1334.5	32
1335.58	27
1336.66	31
1337.75	28
1338.83	32
1339.91	24
1341	35
1342.08	33
1343.16	24
1344.24	29
1345.33	29
1346.41	28
1347.49	31
1348.57	26
1349.65	32
1350.74	27
1351.82	28
1352.9	30
1353.98	31
1355.06	35
1356.14	26
1357.22	24
1358.3	29
1359.38	30
1360.46	30
1361.54	37
1362.62	25
1363.7	31
1364.78	28
1365.86	31
1366.94	22
1368.02	35
1369.09	28
1370.17	29
1371.25	30
1372.33	34
1373.41	26
1374.48	33
1375.56	28
1376.64	28
1377.72	30
1378.79	27
1379.87	29
1380.95	26
1382.02	26
1383.1	22
1384.17	34
1385.25	32
1386.33	30
1387.4	28
1388.48	24
1389.55	33
1390.63	29
1391.7	31
1392.78	31
1393.85	29
1394.93	32
1396	26
1397.07	33
1398.15	30
1399.22	28
1400.3	30
1401.37	34
1402.44	33
1403.52	34
1404.59	31
1405.66	32
1406.73	30
1407.81	31
1408.88	30
1409.95	33
1411.02	33
1412.09	36
1413.17	36
1414.24	28
1415.31	32
1416.38	32
1417.45	30
1418.52	29
1419.59	30
1420.66	32
1421.73	28
1422.8	31
1423.87	36
1424.94	28
1426.01	33
1427.08	30
1428.15	25
1429.22	26
1430.29	28
1431.35	28
1432.42	28
1433.49	28
1434.56	28
1435.63	28
1436.69	29
1437.76	28
1438.83	24
1439.9	30
1440.96	28
1442.03	30
1443.1	34
1444.17	32
1445.23	28
1446.3	29
1447.36	25
1448.43	31
1449.49	30
1450.56	34
1451.63	30
1452.69	30
1453.76	32
1454.82	30
1455.89	28
1456.95	27
1458.01	30
1459.08	24
1460.14	29
1461.21	28
1462.27	27
1463.34	28
1464.4	28
1465.46	28
1466.52	30
1467.59	33
1468.65	28
1469.71	30
1470.77	28
1471.84	34
1472.9	28
1473.96	33
1475.02	29
1476.08	28
1477.15	32
1478.21	27
1479.27	28
1480.33	33
1481.39	30
1482.45	30
1483.51	26
1484.57	28
1485.63	30
1486.69	31
1487.75	29
1488.81	28
1489.87	27
1490.93	34
1491.99	24
1493.05	30
1494.1	28
1495.16	30
1496.22	30
1497.28	22
1498.34	34
1499.4	30
1500.45	29
1501.51	28
1502.57	32
1503.63	30
1504.68	24
1505.74	28
1506.8	24
1507.85	29
1508.91	31
1509.97	32
1511.02	28
1512.08	26
1513.13	28
1514.19	27
1515.24	26
1516.3	32
1517.35	37
1518.41	26
1519.46	32
1520.52	36
1521.57	31
1522.63	33
1523.68	28
1524.73	26
1525.79	27
1526.84	28
1527.9	32
1528.95	29
1530	31
1531.05	31
1532.11	26
1533.16	33
1534.21	30
1535.26	27
1536.32	27
1537.37	27
1538.42	29
1539.47	30
1540.52	32
1541.57	28
1542.63	28
1543.68	30
1544.73	27
1545.78	34
1546.83	28
1547.88	24
1548.93	28
1549.98	29
1551.03	28
1552.08	28
1553.13	28
1554.18	28
1555.23	30
1556.27	29
1557.32	30
1558.37	27
1559.42	31
1560.47	34
1561.52	27
1562.56	31
1563.61	31
1564.66	30
1565.71	31
1566.75	28
1567.8	24
1568.85	25
1569.9	28
1570.94	28
1571.99	32
1573.03	32
1574.08	29
1575.13	33
1576.17	24
1577.22	31
1578.26	30
1579.31	29
1580.35	22
1581.4	30
1582.44	36
1583.49	27
1584.53	32
1585.58	28
1586.62	29
1587.66	28
1588.71	26
1589.75	29
1590.8	27
1591.84	30
1592.88	27
1593.92	24
1594.97	30
1596.01	30
1597.05	27
1598.1	28
1599.14	28
1600.18	29
1601.22	30
1602.26	31
1603.3	28
1604.35	30
1605.39	28
1606.43	26
1607.47	28
1608.51	28
1609.55	30
1610.59	31
1611.63	24
1612.67	28
1613.71	28
1614.75	33
1615.79	31
1616.83	32
1617.87	30
1618.91	29
1619.95	24
1620.99	26
1622.02	27
1623.06	30
1624.1	31
1625.14	28
1626.18	27
1627.21	34
1628.25	26
1629.29	30
1630.33	31
1631.36	30
1632.4	32
1633.44	30
1634.48	25
1635.51	26
1636.55	20
1637.58	28
1638.62	28
1639.66	28
1640.69	30
1641.73	26
1642.76	32
1643.8	27
1644.83	30
1645.87	28
1646.9	31
1647.94	30
1648.97	30
1650	32
1651.04	26
1652.07	27
1653.11	28
1654.14	25
1655.17	26
1656.21	32
1657.24	30
1658.27	24
1659.31	26
1660.34	28
1661.37	24
1662.4	22
1663.43	28
1664.47	24
1665.5	32
1666.53	29
1667.56	25
1668.59	31
1669.62	24
1670.66	24
1671.69	26
1672.72	27
1673.75	26
1674.78	27
1675.81	30
1676.84	33
1677.87	31
1678.9	26
1679.93	30
1680.96	24
1681.98	28
1683.01	27
1684.04	28
1685.07	27
1686.1	34
1687.13	30
1688.16	29
1689.18	28
1690.21	28
1691.24	34
1692.27	24
1693.3	27
1694.32	27
1695.35	26
1696.38	30
1697.4	28
1698.43	24
1699.46	27
1700.48	32
1701.51	26
1702.54	26
1703.56	33
1704.59	28
1705.61	33
1706.64	31
1707.66	30
1708.69	29
1709.71	30
1710.74	26
1711.76	32
1712.79	30
1713.81	16
1714.83	24
1715.86	30
1716.88	23
1717.91	29
1718.93	33
1719.95	29
1720.98	26
1722	34
1723.02	26
1724.04	24
1725.07	30
1726.09	27
1727.11	31
1728.13	27
1729.15	30
1730.18	30
1731.2	30
1732.22	27
1733.24	25
1734.26	29
1735.28	28
1736.3	30
1737.32	30
1738.34	24
1739.36	28
1740.38	26
1741.4	27
1742.42	33
1743.44	24
1744.46	24
1745.48	22
1746.5	30
1747.52	29
1748.54	31
1749.56	29
1750.58	30
1751.6	26
1752.61	26
1753.63	29
1754.65	29
1755.67	28
1756.68	30
1757.7	24
1758.72	30
1759.74	25
1760.75	28
1761.77	31
1762.79	28
1763.8	27
1764.82	29
1765.83	30
1766.85	30
1767.87	26
1768.88	30
1769.9	28
1770.91	28
1771.93	29
1772.94	28
1773.96	34
1774.97	26
1775.99	34
1777	28
1778.02	26
1779.03	28
1780.04	29
1781.06	34
1782.07	30
1783.09	24
1784.1	30
1785.11	26
1786.13	26
1787.14	29
1788.15	29
1789.16	28
1790.18	29
1791.19	28
1792.2	29
1793.21	30
1794.22	31
1795.23	23
1796.25	24
1797.26	25
1798.27	24
1799.28	26
1800.29	27
1801.3	26
1802.31	26
1803.32	32
1804.33	30
1805.34	30
1806.35	26
1807.36	28
1808.37	28
1809.38	26
1810.39	30
1811.4	28
1812.41	27
1813.42	28
1814.42	28
1815.43	33
1816.44	27
1817.45	22
1818.46	27
1819.47	31
1820.47	30
1821.48	30
1822.49	24
1823.49	27
1824.5	26
1825.51	30
1826.52	32
1827.52	26
1828.53	29
1829.53	32
1830.54	28
1831.55	32
1832.55	27
1833.56	32
1834.56	29
1835.57	28
1836.57	25
1837.58	27
1838.58	30
1839.59	31
1840.59	28
1841.6	30
1842.6	26
1843.61	26
1844.61	29
1845.61	22
1846.62	22
1847.62	28
1848.62	29
1849.63	24
1850.63	23
1851.63	25
1852.64	28
1853.64	28
1854.64	28
1855.64	28
1856.64	32
1857.65	30
1858.65	28
1859.65	32
1860.65	28
1861.65	31
1862.65	30
1863.65	30
1864.66	29
1865.66	25
1866.66	28
1867.66	28
1868.66	26
1869.66	24
1870.66	30
1871.66	24
1872.66	34
1873.66	29
1874.66	29
1875.65	30
1876.65	25
1877.65	26
1878.65	29
1879.65	25
1880.65	31
1881.65	28
1882.64	27
1883.64	29
1884.64	28
1885.64	30
1886.63	34
1887.63	29
1888.63	32
1889.63	30
1890.62	30
1891.62	22
1892.62	29
1893.61	24
1894.61	27
1895.6	20
1896.6	23
1897.6	26
1898.59	25
1899.59	26
1900.58	26
1901.58	28
1902.57	23
1903.57	30
1904.56	32
1905.56	26
1906.55	30
1907.54	24
1908.54	31
1909.53	28
1910.53	27
1911.52	25
1912.51	24
1913.51	28
1914.5	30
1915.49	26
1916.49	32
1917.48	28
1918.47	26
1919.46	24
1920.46	24
1921.45	30
1922.44	27
1923.43	30
1924.42	29
1925.41	29
1926.41	20
1927.4	25
1928.39	32
1929.38	28
1930.37	30
1931.36	22
1932.35	28
1933.34	27
1934.33	24
1935.32	22
1936.31	28
1937.3	24
1938.29	24
1939.28	33
1940.27	27
1941.26	23
1942.24	26
1943.23	28
1944.22	27
1945.21	32
1946.2	28
1947.19	24
1948.17	26
1949.16	26
1950.15	27
1951.14	27
1952.12	31
1953.11	28
1954.1	24
1955.09	26
1956.07	28
1957.06	28
1958.05	26
1959.03	32
1960.02	26
1961	22
1961.99	30
1962.98	28
1963.96	22
1964.95	26
1965.93	29
1966.92	30
1967.9	28
1968.89	24
1969.87	30
1970.85	29
1971.84	25
1972.82	32
1973.81	30
1974.79	26
1975.78	27
1976.76	25
1977.74	26
1978.73	24
1979.71	25
1980.69	30
1981.67	28
1982.66	36
1983.64	27
1984.62	25
1985.6	28
1986.59	23
1987.57	26
1988.55	26
1989.53	26
1990.51	26
1991.49	25
1992.47	28
1993.45	24
1994.44	25
1995.42	28
1996.4	28
1997.38	25
1998.36	29
1999.34	29
2000.32	29
2001.3	26
2002.28	26
2003.26	26
2004.24	24
2005.22	26
2006.19	27
2007.17	33
2008.15	30
2009.13	20
2010.11	24
2011.09	24
2012.06	27
2013.04	30
2014.02	24
2015	22
2015.98	28
2016.95	28
2017.93	23
2018.91	28
2019.88	28
2020.86	30
2021.84	23
2022.81	28
2023.79	28
2024.77	26
2025.74	22
2026.72	28
2027.69	26
2028.67	24
2029.65	24
2030.62	25
2031.6	25
2032.57	24
2033.55	27
2034.52	25
2035.5	28
2036.47	22
2037.44	24
2038.42	22
2039.39	28
2040.36	22
2041.34	28
2042.31	27
2043.29	26
2044.26	22
2045.23	28
2046.2	27
2047.18	25
2048.15	26
2049.12	28
2050.09	18
2051.07	28
2052.04	28
2053.01	24
2053.98	22
2054.95	32
2055.93	24
2056.9	26
2057.87	26
2058.84	24
2059.81	22
2060.78	30
2061.75	25
2062.72	29
2063.69	26
2064.66	30
2065.63	30
2066.6	24
2067.57	24
2068.54	26
2069.51	26
2070.48	26
2071.45	33
2072.42	22
2073.38	26
2074.35	29
2075.32	26
2076.29	29
2077.26	29
2078.23	33
2079.19	26
2080.16	27
2081.13	25
2082.1	24
2083.06	25
2084.03	27
2085	31
2085.96	26
2086.93	29
2087.9	24
2088.86	28
2089.83	26
2090.8	24
2091.76	26
2092.73	25
2093.69	28
2094.66	24
2095.62	27
2096.59	24
2097.55	29
2098.52	30
2099.48	26
2100.45	24
2101.41	22
2102.38	20
2103.34	26
2104.31	30
2105.27	29
2106.23	24
2107.2	32
2108.16	26
2109.12	24
2110.09	26
2111.05	30
2112.01	26
2112.98	25
2113.94	29
2114.9	24
2115.86	24
2116.82	26
2117.79	26
2118.75	30
2119.71	28
2120.67	26
2121.63	27
2122.59	28
2123.55	28
2124.52	30
2125.48	27
2126.44	27
2127.4	16
2128.36	22
2129.32	24
2130.28	28
2131.24	25
2132.2	20
2133.16	30
2134.12	24
2135.08	24
2136.04	29
2136.99	26
2137.95	21
2138.91	26
2139.87	24
2140.83	27
2141.79	25
2142.75	32
2143.7	26
2144.66	26
2145.62	29.0011
2146.58	26.9318
2147.53	27.9635
2148.49	27.1407
2149.45	25.8099
2150.41	26.2042
2151.36	28.843
2152.32	27.4384
2153.27	24.1574
2154.23	22.1863
2155.19	25.7941
2156.14	23.0941
2157.1	24.4142
2158.06	23.4052
2159.01	25.4154
2159.97	20.7501
2160.92	26.1912
2161.88	24.4926
2162.83	27.634
2163.79	27.0441
2164.74	26.1972
2165.7	24.9581
2166.65	24.6796
2167.61	27.2857
2168.56	24.006
2169.51	28.9852
2170.47	26.226
2171.42	26.8891
2172.38	30.6722
2173.33	26.8144
2174.28	24
2175.24	25.7412
2176.19	27.7436
2177.14	23.3367
2178.09	19.4538
2179.05	25.8675
2180	22.8693
2180.95	23.496
2181.9	24.634
2182.86	27.9161
2183.81	25.5046
2184.76	24.1791
2185.71	24.7367
2186.66	26.2206
2187.61	27.2901
2188.57	27.1664
2189.52	26.8447
2190.47	24.5296
2191.42	26.7829
2192.37	23.0441
2193.32	25.079
2194.27	25.0485
2195.22	24.7988
2196.17	25.3035
2197.12	27.9052
2198.07	25.3303
2199.02	26.4779
2199.97	23.3075
2200.92	25.9731
2201.87	24.6528
2202.82	25.2206
2203.76	27.8833
2204.71	23.9448
2205.66	25.4568
2206.61	26.6565
2207.56	26.8495
2208.51	26.5505
2209.45	26.4961
2210.4	25.813
2211.35	23.5361
2212.3	27.5923
2213.24	28
2214.19	27.1324
2215.14	29.6026
2216.09	24.1731
2217.03	24.3762
2217.98	26.2825
2218.93	25.6898
2219.87	26.7677
2220.82	24.816
2221.77	27.1769
2222.71	24.9732
2223.66	24.0027
2224.6	25.623
2225.55	27.2794
2226.49	26.294
2227.44	27.5882
2228.38	25.1127
2229.33	25.3014
2230.27	26.686
2231.22	27.451
2232.16	25.9195
2233.11	24.7701
2234.05	25.4724
2235	25.8529
2235.94	24.6003
2236.88	24
2237.83	26.4706
2238.77	27.2541
2239.71	27.5504
2240.66	26.8038
2241.6	27.7198
2242	29
2242.95	28
2243.9	29
2244.84	27
2245.79	26
2246.74	22
2247.69	28
2248.63	24
2249.58	26
2250.53	26
2251.47	26
2252.42	28
2253.37	28
2254.31	29
2255.26	26
2256.2	24
2257.15	25
2258.1	26
2259.04	24
2259.99	30
2260.93	28
2261.88	23
2262.82	24
2263.77	25
2264.71	24
2265.65	24
2266.6	32
2267.54	29
2268.49	24
2269.43	28
2270.38	24
2271.32	28
2272.26	28
2273.21	29
2274.15	26
2275.09	26
2276.04	23
2276.98	27
2277.92	22
2278.86	24
2279.81	28
2280.75	30
2281.69	27
2282.63	22
2283.57	22
2284.52	26
2285.46	20
2286.4	28
2287.34	24
2288.28	34
2289.22	30
2290.16	23
2291.1	25
2292.04	24
2292.98	28
2293.93	24
2294.86	26
2295.8	26
2296.74	22
2297.69	22
2298.62	28
2299.56	24
2300.5	27
2301.44	18
2302.38	26
2303.32	24
2304.26	26
2305.2	28
2306.14	27
2307.07	28
2308.01	25
2308.95	25
2309.89	25
2310.83	24
2311.76	25
2312.7	29
2313.64	27
2314.58	32
2315.51	27
2316.45	29
2317.39	18
2318.32	28
2319.26	25
2320.2	24
2321.13	23
2322.07	23
2323	20
2323.94	27
2324.88	26
2325.81	26
2326.75	30
2327.68	24
2328.62	29
2329.55	26
2330.49	27
2331.42	22
2332.36	24
2333.29	28
2334.22	33
2335.16	24
2336.09	27
2337.03	33
2337.96	28
2338.89	22
2339.83	25
2340.76	30
2341.69	27
2342.63	26
2343.56	25
2344.49	28
2345.43	26
2346.36	29
2347.29	24
2348.22	24
2349.15	30
2350.09	26
2351.02	26
2351.95	26
2352.88	27
2353.81	27
2354.74	26
2355.67	24
2356.61	28
2357.54	24
2358.47	24
2359.4	24
2360.33	30
2361.26	24
2362.19	26
2363.12	26
2364.05	28
2364.98	20
2365.91	23
2366.84	28
2367.77	28
2368.7	24
2369.62	26
2370.55	28
2371.48	22
2372.41	26
2373.34	29
2374.27	28
2375.2	27
2376.12	26
2377.05	25
2377.98	22
2378.91	27
2379.83	22
2380.76	28
2381.69	26
2382.62	26
2383.54	27
2384.47	25
2385.4	24
2386.32	30
2387.25	24
2388.18	30
2389.1	34
2390.03	26
2390.95	22
2391.88	23
2392.81	26
2393.73	24
2394.66	26
2395.58	30
2396.51	25
2397.43	25
2398.36	27
2399.28	27
2400.2	24
2401.13	29
2402.05	27
2402.98	30
2403.9	27
2404.83	28
2405.75	28
2406.67	26
2407.6	32
2408.52	26
2409.44	29
2410.37	27
2411.29	28
2412.21	22
2413.13	24
2414.06	25
2414.98	28
2415.9	26
2416.82	23
2417.74	24
2418.67	24
2419.59	28
2420.51	28
2421.43	32
2422.35	26
2423.27	27
2424.19	30
2425.11	26
2426.03	28
2426.96	26
2427.88	30
2428.8	27
2429.72	18
2430.64	33
2431.56	24
2432.48	29
2433.39	26
2434.31	23
2435.23	22
2436.15	32
2437.07	30
2437.99	24
2438.91	26
2439.83	32
2440.75	23
2441.67	28
2442.58	24
2443.5	31
2444.42	24
2445.34	26
2446.26	27
2447.17	28
2448.09	28
2449.01	29
2449.92	27
2450.84	28
2451.76	28
2452.68	23
2453.59	30
2454.51	29
2455.42	29
2456.34	33
2457.26	26
2458.17	24
2459.09	22
2460	28
2460.92	30
2461.83	29
2462.75	27
2463.66	26
2464.58	28
2465.49	24
2466.41	31
2467.32	28
2468.24	25
2469.15	24
2470.07	29
2470.98	26
2471.89	28
2472.81	26
2473.72	28
2474.64	26
2475.55	32
2476.46	24
2477.37	25
2478.29	26
2479.2	25
2480.11	30
2481.03	28
2481.94	32
2482.85	30
2483.76	30
2484.67	28
2485.59	24
2486.5	22
2487.41	26
2488.32	30
2489.23	23
2490.14	26
2491.05	24
2491.97	30
2492.88	22
2493.79	32
2494.7	29
2495.61	31
2496.52	29
2497.43	28
2498.34	28
2499.25	27
2500.16	27
2501.07	28
2501.98	27
2502.89	30
2503.79	33
2504.7	25
2505.61	25
2506.52	27
2507.43	25
2508.34	28
2509.25	28
2510.16	20
2511.06	29
2511.97	29
2512.88	24
2513.79	24
2514.69	20
2515.6	28
2516.51	28
2517.42	24
2518.32	29
2519.23	28
2520.14	28
2521.04	28
2521.95	24
2522.86	21
2523.76	26
2524.67	32
2525.57	26
2526.48	27
2527.39	28
2528.29	28
2529.2	28
2530.1	30
2531.01	24
2531.91	29
2532.82	28
2533.72	26
2534.63	26
2535.53	34
2536.44	28
2537.34	29
2538.24	26
2539.15	30
2540.05	28
2540.96	30
2541.86	26
2542.76	28
2543.67	24
2544.57	28
2545.47	26
2546.37	33
2547.28	28
2548.18	27
2549.08	23
2549.99	25
2550.89	25
2551.79	26
2552.69	27
2553.59	28
2554.49	26
2555.4	23
2556.3	28
2557.2	28
2558.1	27
2559	29
2559.9	31
2560.8	26
2561.7	28
2562.6	26
2563.5	29
2564.4	29
2565.3	26
2566.2	26
2567.1	27
2568	27
2568.9	22
2569.8	26
2570.7	28
2571.6	28
2572.5	26
2573.4	31
2574.3	25
2575.2	27
2576.1	26
2576.99	30
2577.89	16
2578.79	24
2579.69	28
2580.59	28
2581.48	31
2582.38	29
2583.28	26
2584.18	28
2585.07	25
2585.97	27
2586.87	23
2587.76	24
2588.66	22
2589.56	30
2590.45	20
2591.35	26
2592.25	28
2593.14	30
2594.04	29
2594.93	24
2595.83	25
2596.73	27
2597.62	28
2598.52	28
2599.41	25
2600.31	32
2601.2	31
2602.1	22
2602.99	25
2603.88	28
2604.78	27
2605.67	30
2606.57	33
2607.46	28
2608.35	29
2609.25	24
2610.14	32
2611.03	28
2611.93	24
2612.82	20
2613.71	29
2614.61	27
2615.5	33
2616.39	28
2617.29	26
2618.18	29
2619.07	28
2619.96	26
2620.85	30
2621.75	24
2622.64	24
2623.53	26
2624.42	30
2625.31	30
2626.2	27
2627.09	28
2627.98	26
2628.88	27
2629.77	30
2630.66	29
2631.55	25
2632.44	28
2633.33	30
2634.22	28
2635.11	20
2636	33
2636.89	28
2637.78	22
2638.66	26
2639.55	29
2640.44	28
2641.33	29
2642.22	28
2643.11	23
2644	26
2644.89	29
2645.78	23
2646.66	29
2647.55	34
2648.44	26
2649.33	26
2650.21	26
2651.1	33
2651.99	24
2652.88	30
2653.76	25
2654.65	30
2655.54	30
2656.42	26
2657.31	24
2658.2	26
2659.08	28
2659.97	28
2660.86	31
2661.74	27
2662.63	32
2663.51	27
2664.4	26
2665.29	30
2666.17	28
2667.06	24
2667.94	28
2668.83	25
2669.71	30
2670.6	24
2671.48	26
2672.36	24
2673.25	28
2674.13	28
2675.02	22
2675.9	26
2676.78	22
2677.67	30
2678.55	24
2679.43	30
2680.32	26
2681.2	30
2682.08	27
2682.97	30
2683.85	26
2684.73	26
2685.61	28
2686.5	26
2687.38	25
2688.26	27
2689.14	29
2690.03	29
2690.91	29
2691.79	28
2692.67	20
2693.55	28
2694.43	29
2695.31	28
2696.19	28
2697.08	20
2697.96	26
2698.84	32
2699.72	28
2700.6	22
2701.48	25
2702.36	28
2703.24	24
2704.12	26
2705	31
2705.88	31
2706.76	26
2707.64	22
2708.51	26
2709.39	24
2710.27	28
2711.15	27
2712.03	29
2712.91	27
2713.79	29
2714.67	28
2715.54	29
2716.42	31
2717.3	26
2718.18	24
2719.05	22
2719.93	24
2720.81	24
2721.69	28
2722.56	30
2723.44	30
2724.32	28
2725.19	30
2726.07	24
2726.95	26
2727.82	26
2728.7	25
2729.58	24
2730.45	31
2731.33	30
2732.2	26
2733.08	23
2733.95	26
2734.83	27
2735.7	29
2736.58	24
2737.45	26
2738.33	27
2739.2	30
2740.08	29
2740.95	30
2741.83	24
2742.7	30
2743.58	27
2744.45	28
2745.32	28
2746.2	29
2747.07	33
2747.94	24
2748.82	27
2749.69	26
2750.56	22
2751.44	24
2752.31	24
2753.18	24
2754.05	26
2754.93	22
2755.8	25
2756.67	28
2757.54	30
2758.42	29
2759.29	30
2760.16	28
2761.03	30
2761.9	30
2762.77	23
2763.64	22
2764.51	28
2765.38	28
2766.26	28
2767.13	26
2768	30
2768.87	24
2769.74	25
2770.61	22
2771.48	28
2772.35	30
2773.22	30
2774.09	26
2774.96	32
2775.83	28
2776.7	32
2777.56	27
2778.43	27
2779.3	28
2780.17	28
2781.04	25
2781.91	25
2782.78	28
2783.64	27
2784.51	32
2785.38	24
2786.25	24
2787.12	32
2787.98	29
2788.85	25
2789.72	27
2790.59	34
2791.45	25
2792.32	24
2793.19	24
2794.05	30
2794.92	28
2795.79	30
2796.65	30
2797.52	22
2798.38	31
2799.25	30
2800.12	26
2800.98	32
2801.85	30
2802.71	29
2803.58	28
2804.44	26
2805.31	29
2806.17	27
2807.04	30
2807.9	28
2808.77	29
2809.63	29
2810.5	27
2811.36	30
2812.22	30
2813.09	28
2813.95	30
2814.82	26
2815.68	28
2816.54	32
2817.41	28
2818.27	30
2819.13	27
2820	25
2820.86	28
2821.72	30
2822.58	27
2823.45	28
2824.31	26
2825.17	28
2826.03	26
2826.9	24
2827.76	28
2828.62	32
2829.48	30
2830.34	30
2831.2	30
2832.06	27
2832.92	27
2833.79	24
2834.65	24
2835.51	26
2836.37	26
2837.23	31
2838.09	34
2838.95	24
2839.81	31
2840.67	28
2841.53	28
2842.39	26
2843.25	26
2844.11	27
2844.97	31
2845.83	28
2846.68	28
2847.54	28
2848.4	28
2849.26	20
2850.12	29
2850.98	28
2851.84	25
2852.69	27
2853.55	28
2854.41	29
2855.27	29
2856.13	26
2856.98	27
2857.84	26
2858.7	23
2859.56	28
2860.41	27
2861.27	29
2862.13	24
2862.98	26
2863.84	26
2864.7	26
2865.55	32
2866.41	26
2867.27	32
2868.12	34
2868.98	32
2869.83	30
2870.69	35
2871.54	34
2872.4	29
2873.25	28
2874.11	26
2874.96	29
2875.82	30
2876.68	30
2877.53	34
2878.38	32
2879.24	30
2880.09	36
2880.95	32
2881.8	31
2882.65	35
2883.51	37
2884.36	29
2885.22	26
2886.07	36
2886.92	40
2887.77	37
2888.63	38
2889.48	39
2890.33	35
2891.19	36
2892.04	38
2892.89	40
2893.74	44
2894.6	42
2895.45	44
2896.3	40
2897.15	43
2898	48
2898.85	46
2899.71	48
2900.56	49
2901.41	46
2902.26	56
2903.11	65
2903.96	63
2904.81	60
2905.66	62
2906.51	60
2907.36	62
2908.21	56
2909.06	58
2909.91	64
2910.76	53
2911.61	53
2912.46	57
2913.31	48
2914.16	47
2915.01	42
2915.86	42
2916.71	36
2917.56	43
2918.41	36
2919.26	37
2920.1	32
2920.95	39
2921.8	35
2922.65	38
2923.5	33
2924.34	38
2925.19	37
2926.04	32
2926.89	34
2927.74	30
2928.58	26
2929.43	29
2930.28	32
2931.12	34
2931.97	29
2932.82	26
2933.66	31
2934.51	26
2935.36	26
2936.2	32
2937.05	24
2937.89	31
2938.74	27
2939.59	27
2940.43	28
2941.28	32
2942.12	32
2942.97	33
2943.81	32
2944.66	30
2945.5	37
2946.35	30
2947.19	31
2948.04	27
2948.88	30
2949.72	28
2950.57	28
2951.41	30
2952.26	32
2953.1	34
2953.94	30
2954.79	34
2955.63	32
2956.47	36
2957.32	31
2958.16	36
2959	37
2959.85	36
2960.69	36
2961.53	38
2962.37	43
2963.22	42
2964.06	44
2964.9	45
2965.74	41
2966.58	38
2967.42	42
2968.27	44
2969.11	43
2969.95	34
2970.79	36
2971.63	38
2972.47	38
2973.31	33
2974.15	34
2974.99	30
2975.83	32
2976.68	26
2977.52	26
2978.36	36
2979.2	33
2980.04	34
2980.88	36
2981.71	30
2982.55	29
2983.39	32
2984.23	32
2985.07	27
2985.91	30
2986.75	30
2987.59	28
2988.43	28
2989.27	27
2990.1	30
2990.94	30
2991.78	32
2992.62	28
2993.46	24
2994.3	22
2995.13	29
2995.97	26
2996.81	30
2997.64	24
2998.48	33
2999.32	28
