#Acq. time (s)=	5
#Accumulations=	5
#Range (cm-¹)=	100...3500
#Windows=	4
#Autofocus=	Off
#AutoExposure=	Off
#Spike filter=	Multiple accum.
#Delay time (s)=	0
#Binning=	1
#Readout mode=	Signal
#DeNoise=	Off
#ICS correction=	Off
#Dark correction=	Off
#Inst. Process=	Off
#Instrument=	LabRAM HR Evol
#Detector=	Syncerity OE
#Objective=	x100_VIS
#Grating=	600 (500nm)
#ND Filter=	25%
#Laser=	633nm_Edge
#Hole=	100.021
#Range=	Visible
#Project=	verificaciones
#Sample=	a3
#Site=	plain
#Title=	bolusa3plain
#Remark=	
#Date=	12.01.2026 15:59
#Acquired=	12.01.2026 15:59:59
100.666	23.5
101.95	32
103.233	28
104.516	31
105.799	29
107.083	32.5
108.365	30.5
109.648	27
110.93	26.5
112.212	33
113.493	28.5
114.775	30.5
116.056	26.5
117.337	29.5
118.618	31
119.898	27.5
121.178	31
122.459	31
123.739	31.5
125.018	32
126.298	30
127.577	27
128.856	31.5
130.135	32
131.414	31
132.692	31.5
133.971	34
135.249	33
136.525	30.5
137.803	35
139.08	34
140.357	34
141.634	34
142.911	29
144.188	35
145.464	39
146.74	37.5
148.015	33
149.291	37
150.566	39
151.842	36
153.117	40
154.392	38.5
155.665	35
156.939	35
158.214	35
159.488	43
160.76	37
162.034	36
163.307	36.5
164.581	36
165.854	39
167.125	38
168.398	36
169.67	38
170.941	40.5
172.213	34
173.485	36
174.756	30
176.026	35
177.298	39
178.569	32.5
179.838	36
181.109	36.5
182.379	42
183.648	37.5
184.918	40.5
186.187	35.5
187.455	35.5
188.725	37
189.992	38.5
191.261	37
192.53	34.5
193.797	36
195.065	38
196.332	40
197.6	36.5
198.866	30
200.134	37
201.401	38.5
202.667	32
203.933	37
205.199	34.5
206.465	33
207.73	31.5
208.996	35
210.26	30
211.526	34
212.79	33
214.055	31
215.319	28.5
216.582	28.5
217.847	28.5
219.11	30.5
220.374	31.5
221.636	34.5
222.9	32
224.162	33
225.424	31
226.687	35
227.949	26.5
229.212	32
230.473	27.5
231.734	31
232.996	27.5
234.256	34
235.517	26.5
236.778	27.5
238.038	29.5
239.298	31
240.559	30
241.818	31
243.077	26
244.337	25
245.596	31
246.854	28.5
248.113	30
249.372	29.5
250.63	30
251.887	27
253.145	29
254.404	30
255.661	29
256.917	29.5
258.174	28
259.432	33.5
260.688	32
261.944	29.5
263.2	30.5
264.456	27.5
265.711	30.5
266.968	25.5
268.223	30.5
269.477	31
270.732	31
271.986	27
273.24	24.5
274.494	26
275.748	25
277.003	29.5
278.257	26
279.51	29.5
280.763	24.5
282.015	32
283.268	27.5
284.52	30.5
285.773	29
287.024	27.5
288.276	28
289.528	30.5
290.779	30
292.03	30
293.281	32
294.532	31
295.782	29
297.033	27.5
298.283	26.5
299.533	28
300.783	25
302.032	27
303.281	25
304.531	27
305.78	26.5
307.028	27
308.275	28
309.524	27
310.772	29
312.02	29.5
313.267	26.5
314.515	28
315.762	28.5
317.009	25
318.255	26
319.501	27
320.748	27.5
321.994	24.5
323.24	31
324.486	31
325.731	29
326.976	29
328.221	27.5
329.466	26
330.71	29.5
331.955	26.5
333.199	30.5
334.443	25
335.686	27.5
336.93	29
338.174	29.5
339.417	26.5
340.659	27.5
341.902	26.5
343.145	29
344.386	25
345.629	27.5
346.871	26.5
348.112	24.5
349.354	24.5
350.595	28
351.836	29.5
353.077	29.5
354.318	33.5
355.557	27
356.798	26.5
358.037	29
359.277	28
360.518	28.5
361.756	29.5
362.996	27
364.234	26.5
365.473	24
366.711	28
367.95	30.5
369.187	25
370.426	26
371.662	28.5
372.901	24
374.137	27
375.375	28
376.611	25
377.848	30
379.084	27.5
380.321	26.5
381.556	28
382.793	26
384.027	27
385.264	28
386.498	28.5
387.732	25
388.968	29
390.202	26
391.437	30
392.671	29.5
393.904	27
395.138	29
396.371	28.5
397.604	24
398.838	30
400.07	30
401.302	30
402.536	28.5
403.768	31.5
404.999	29
406.232	24
407.463	26.5
408.694	27
409.925	31
411.157	27.5
412.387	27.5
413.617	29
414.847	26.5
416.078	28
417.308	25.5
418.537	29
419.767	26
420.997	26
422.226	27.5
423.454	25
424.683	24.5
425.911	25
427.139	30
428.368	28.5
429.596	24
430.823	26.5
432.05	31
433.277	29
434.504	26
435.731	28.5
436.957	27.5
438.185	23
439.411	28
440.637	26
441.862	32
443.088	26.5
444.313	28
445.538	27.5
446.763	28.5
447.988	31
449.212	26.5
450.436	23.5
451.661	28
452.884	26.5
454.108	30
455.332	25
456.555	27
457.778	26.5
459.001	30.5
460.224	28.5
461.446	29.5
462.668	28
463.891	31.5
465.111	31.5
466.333	32.5
467.554	28.5
468.776	33
469.997	32.5
471.218	35
472.439	30.5
473.659	31.5
474.878	36
476.098	38.5
477.318	39.5
478.538	42.5
479.758	46.5
480.977	42.5
482.195	47
483.414	48
484.633	51
485.851	54
487.07	55.5
488.287	47.5
489.505	52.5
490.723	51
491.94	54
493.156	51
494.374	48
495.591	47
496.806	44.5
498.023	44.5
499.239	41.5
500.456	39.5
501.67	40.5
502.886	38.5
504.102	35
505.316	35
506.531	34
507.745	32.5
508.96	36.5
510.175	37.5
511.388	34
512.602	32.5
513.815	26.5
515.029	34
516.243	28
517.455	28
518.669	36
519.88	33
521.093	30.5
522.305	32
523.518	28
524.729	29.5
525.941	30.5
527.151	27.5
528.363	26
529.574	32
530.785	28
531.995	32.5
533.206	29.5
534.416	28.5
535.626	24.5
536.835	27.5
538.046	30.5
539.254	31
540.463	27.5
541.673	26
542.881	28
544.09	29
545.298	25
546.506	31.5
547.714	27
548.922	27.5
550.13	30
551.337	30
552.544	32
553.751	29.5
554.958	29.5
556.164	27.5
557.37	26.5
558.577	30.5
559.782	27.5
560.987	26.5
562.194	29
563.399	30.5
564.604	32
565.808	29
567.014	26
568.218	25
569.422	26.5
570.626	28.5
571.829	27.5
573.034	25
574.237	29
575.44	35
576.643	27.5
577.846	28
579.048	27.5
580.252	26
581.454	30
582.656	24.5
583.857	26.5
585.059	25
586.26	29.5
587.461	28.5
588.662	27.5
589.863	28
591.065	30
592.265	29.5
593.465	31
594.665	27
595.865	23
597.065	23
598.264	24
599.463	26
600.662	28.5
601.861	29.5
603.06	29.5
604.258	28
605.457	27
606.655	24
607.853	27
609.05	29.5
610.248	25
611.444	27
612.641	25
613.838	30
615.034	26
616.231	25.5
617.427	30
618.624	27.5
619.82	26
621.015	25
622.21	25.5
623.405	30
624.6	30
625.795	25
626.99	28.5
628.185	23.5
629.378	27.5
630.572	25
631.766	24
632.96	25
634.154	27.5
635.346	29.5
636.54	31.5
637.733	30.5
638.926	31
640.117	26
641.31	27.5
642.502	35.5
643.693	25.5
644.885	26.5
646.077	24
647.267	27.5
648.459	24
649.65	30.5
650.84	31
652.031	30.5
653.222	25.5
654.411	30
655.601	28.5
656.791	32.5
657.98	27
659.17	26.5
660.358	32
661.547	28.5
662.737	28.5
663.924	27.5
665.113	25
666.3	29.5
667.489	29.5
668.676	29
669.864	25
671.05	30
672.238	32
673.424	28.5
674.612	32.5
675.798	34
676.985	31
678.17	28.5
679.357	33
680.542	29.5
681.728	27.5
682.913	35
684.097	40
685.283	32.5
686.467	36.5
687.652	35.5
688.836	34
690.02	29.5
691.205	34.5
692.388	30
693.571	32.5
694.755	31
695.938	31
697.12	33.5
698.304	35
699.486	33
700.668	34.5
701.851	38
703.032	36.5
704.214	37
705.395	43
706.577	47.5
707.758	51
708.939	46.5
710.119	48
711.301	43
712.481	39
713.661	35.5
714.84	35
716.02	29.5
717.201	30
718.38	30.5
719.559	27
720.737	28.5
721.916	30
723.094	29
724.274	24
725.452	27.5
726.63	27.5
727.808	29.5
728.985	29.5
730.162	22.5
731.339	25
732.516	27
733.693	26.5
734.87	29
736.046	26
737.222	25
738.398	28
739.574	21.5
740.75	29
741.925	28
743.1	27.5
744.276	26
745.45	27
746.625	26
747.8	30.5
748.974	32.5
750.148	31
751.322	23
752.496	28.5
753.67	26
754.843	28
756.016	30
757.189	28.5
758.362	26.5
759.534	25.5
760.706	29
761.878	24
763.051	29.5
764.223	25
765.394	32
766.565	25.5
767.736	25.5
768.907	31.5
770.078	28
771.249	25.5
772.419	27
773.589	26
774.759	24
775.93	29.5
777.098	29
778.268	24
779.438	29
780.607	28.5
781.775	28
782.944	28
784.113	29.5
785.28	32
786.449	28.5
787.617	33
788.784	25.5
789.952	28.5
791.12	29
792.286	35
793.453	31
794.62	26
795.786	30.5
796.953	26.5
798.118	30.5
799.285	29
800.45	31
801.616	29
802.782	26.5
803.946	28.5
805.112	27.5
806.276	28
807.441	25.5
808.605	28.5
809.77	26
810.933	29.5
812.098	27
813.261	31.5
814.425	31.5
815.588	29.5
816.75	25
817.914	23.5
819.076	29.5
820.239	27.5
821.401	26
822.564	27.5
823.725	26.5
824.886	24.5
826.048	30.5
827.209	27.5
828.37	29
829.532	24
830.692	27.5
831.852	25
833.013	26
834.173	27.5
835.333	23
836.493	25.5
837.653	29.5
838.812	24.5
839.972	26.5
841.13	22.5
842.289	25.5
843.447	31
844.607	25.5
845.765	25
846.922	26
848.08	30.5
849.237	25
850.396	30.5
851.553	24.5
852.71	26.5
853.867	26.5
855.023	27.5
856.179	27
857.337	28.5
858.493	30
859.649	28
860.804	30.5
861.96	30
863.115	26.5
864.27	24.5
865.425	29.5
866.58	28
867.734	31.5
868.888	27.5
870.043	26
871.197	26.5
872.35	25.5
873.504	32
874.658	26.5
875.811	28.5
876.964	27.5
878.117	24.5
879.27	29
880.422	29.5
881.575	26.5
882.727	27.5
883.879	26.5
885.031	26.5
886.182	26
887.334	26.5
888.485	25
889.636	25.5
890.787	25.5
891.937	25
893.088	30.5
894.238	27
895.388	25.5
896.538	29
897.688	30.5
898.837	26
899.986	24
901.136	25
902.285	27
903.434	25
904.581	25.5
905.73	29.5
906.878	25.5
908.027	28.5
909.174	26
910.321	23
911.469	27
912.617	21
913.763	25
914.91	31
916.057	27
917.203	24.5
918.35	27
919.496	29
920.641	29.5
921.787	24
922.933	29
924.078	26.5
925.224	30.5
926.368	26.5
927.513	28.5
928.658	23.5
929.802	28
930.946	21
932.09	23
933.234	26
934.377	25.5
935.521	29
936.664	28
937.807	26
938.95	26
940.093	25.5
941.235	25
942.378	23
943.519	23
944.662	28.5
945.803	21.5
946.946	24.5
948.086	31
949.227	27
950.369	25
951.509	26
952.651	25
953.79	24.5
954.93	23
956.071	20.5
957.211	26.5
958.35	21.5
959.49	25
960.629	27.5
961.768	29
962.908	22.5
964.046	25
965.184	23.5
966.323	30
967.461	26.5
968.599	27
969.736	30
970.875	29
972.012	25
973.149	26.5
974.286	23.5
975.424	26
976.56	24.5
977.697	27.5
978.833	23.5
979.969	25.5
981.104	27
982.241	29.5
983.377	26
984.512	25
985.647	26.5
986.782	25
987.916	25.5
989.051	29
990.185	26
991.321	27
992.455	30.5
993.589	24.5
994.722	29
995.856	24.5
996.989	27
998.122	29.5
999.255	27
1000.39	25
1001.52	25
1002.65	30.5
1003.79	29.5
1004.92	24
1006.05	28.5
1007.18	25
1008.31	30.5
1009.44	23.5
1010.57	27.5
1011.7	27.5
1012.84	26.5
1013.97	25
1015.1	27.5
1016.23	24.5
1017.36	22.5
1018.49	22
1019.62	28
1020.75	22
1021.88	27.5
1023	19.5
1024.13	26
1025.26	25.5
1026.39	27.5
1027.52	27.5
1028.65	25.5
1029.78	26.5
1030.9	28.5
1032.03	24.5
1033.16	26.5
1034.29	25
1035.41	24
1036.54	23.5
1037.67	27
1038.79	28
1039.92	27
1041.04	26.5
1042.17	27
1043.3	27.5
1044.42	30.5
1045.55	25
1046.67	28.5
1047.8	24.5
1048.92	24
1050.05	24.5
1051.17	28
1052.3	30
1053.42	25.5
1054.54	26
1055.67	25.5
1056.79	24
1057.91	24
1059.04	26
1060.16	25
1061.28	30
1062.41	29
1063.53	22.5
1064.65	26.5
1065.77	26
1066.9	24
1068.02	25.5
1069.14	27.5
1070.26	27.5
1071.38	28
1072.5	26.5
1073.62	26
1074.74	24.5
1075.86	26.5
1076.98	27
1078.1	22.5
1079.22	22
1080.34	25
1081.46	23
1082.58	25.5
1083.7	25
1084.82	22
1085.94	29
1087.06	29.5
1088.18	26
1089.29	27.5
1090.41	28
1091.53	27
1092.65	26
1093.77	23.5
1094.88	28
1096	25
1097.12	25.5
1098.23	25
1099.35	20.5
1100.47	23
1101.58	27.5
1102.7	25
1103.82	25
1104.93	25
1106.05	29.5
1107.16	21
1108.28	24
1109.39	25
1110.51	23.5
1111.62	23.5
1112.74	20.5
1113.85	26
1114.96	24
1116.08	25
1117.19	25.5
1118.31	23.5
1119.42	25
1120.53	29
1121.65	26
1122.76	24.5
1123.87	23.5
1124.98	22.5
1126.1	26
1127.21	26
1128.32	24.5
1129.43	27.5
1130.54	24
1131.65	25.5
1132.76	24
1133.88	27
1134.99	20
1136.1	25
1137.21	24.5
1138.32	21.5
1139.43	25.5
1140.54	26.5
1141.65	23
1142.76	27
1143.87	28
1144.98	27
1146.08	27
1147.19	25
1148.3	19
1149.41	24
1150.52	23.5
1151.63	25
1152.73	24.5
1153.84	27
1154.95	25
1156.06	26
1157.17	25.5
1158.27	21
1159.38	26
1160.49	26
1161.59	27.5
1162.7	24
1163.8	25
1164.91	26
1166.02	23
1167.12	22.5
1168.23	28
1169.33	26.5
1170.44	22.5
1171.54	23.5
1172.65	25
1173.75	26.5
1174.86	27.5
1175.96	23.5
1177.06	27
1178.17	21.5
1179.27	22.5
1180.37	26.5
1181.48	24.5
1182.58	22.5
1183.68	25.5
1184.79	24
1185.89	27
1186.99	25
1188.09	24
1189.2	26.5
1190.3	25
1191.4	21.5
1192.5	21
1193.6	25.5
1194.7	21.0111
1195.8	22.9942
1196.9	25.9296
1198.01	26.3948
1199.11	22.5342
1200.21	24.5
1201.31	22.6262
1202.41	21.2739
1203.5	21.3431
1204.6	28.2319
1205.7	24.4944
1206.8	23.2102
1207.9	20.1457
1209	26.4989
1210.1	21.6395
1211.2	26.7029
1212.3	22.8398
1213.39	24.9802
1214.49	25.9534
1215.59	25.374
1216.69	25.5031
1217.78	24.9808
1218.88	25.3209
1219.98	22.7608
1221.08	21.5546
1222.17	26.2573
1223.27	24.043
1224.37	24.0938
1225.46	25.4134
1226.56	22.1119
1227.65	20.8965
1228.75	24.6852
1229.84	26.6314
1230.94	26.0822
1232.03	22.565
1233.13	23.305
1234.22	20.2438
1235.32	22.7775
1236.41	26.4066
1237.51	24.1917
1238.6	23.8872
1239.69	23.7964
1240.79	23.2985
1241.88	23.8449
1242.97	25.7832
1244.07	24.0055
1245.16	23.8971
1246.25	22.4226
1247.35	25.4473
1248.44	21.9414
1249.53	26.8351
1250.62	24.3819
1251.71	27.1166
1252.81	25.0511
1253.9	26.0154
1254.99	24.7443
1256.08	25.7255
1257.17	26.7711
1258.26	26.9592
1259.35	26.6222
1260.44	25.6428
1261.53	26.2798
1262.62	25.7368
1263.71	26.8265
1264.8	26.5649
1265.89	22.769
1266.98	27.4186
1268.07	26.8447
1269.16	26.2478
1270.25	25.7308
1271.34	26.4247
1272.43	23.7702
1273.52	24.4077
1274.6	24.3711
1275.69	25.5603
1276.78	23.5519
1277.87	25.2572
1278.95	24.3057
1280.04	24.4897
1281.13	24.1814
1282.22	23.8908
1283.3	25.1761
1284.39	24.6003
1285.48	22.6055
1286.56	24.5817
1287.65	24.7546
1288.73	25.2807
1289.82	25.3217
1290.91	24.5475
1291.99	23.7602
1293.08	24.1172
1294.16	24.8959
1295.24	25.1529
1296.33	24.2213
1297.41	24.95
1298.5	23.8061
1299.58	24.4513
1300.67	24.1163
1301.75	26.1631
1302.83	24.3769
1303.92	23.9006
1305	22.9342
1306.08	22.8734
1306.4	23
1307.49	23
1308.58	24
1309.66	27
1310.75	23
1311.84	23
1312.93	24.5
1314.01	23.5
1315.1	27
1316.19	23
1317.27	26
1318.36	23.5
1319.45	23
1320.53	23
1321.62	23.5
1322.71	24.5
1323.79	24
1324.88	20.5
1325.96	23
1327.05	20.5
1328.13	18
1329.22	19
1330.3	24.5
1331.39	18
1332.47	28
1333.55	24
1334.64	23.5
1335.72	22
1336.81	23
1337.89	24.5
1338.97	27.5
1340.06	23.5
1341.14	21
1342.22	23
1343.3	22
1344.39	23
1345.47	24
1346.55	23
1347.63	22.5
1348.71	24
1349.8	24.5
1350.88	24.5
1351.96	19.5
1353.04	23
1354.12	27
1355.2	24.5
1356.28	23.5
1357.36	26.5
1358.44	25
1359.52	23.5
1360.6	24
1361.68	24
1362.76	21
1363.84	23.5
1364.92	23.5
1366	25
1367.08	24.5
1368.16	23
1369.23	26
1370.31	25
1371.39	25.5
1372.47	23.5
1373.55	20
1374.62	20.5
1375.7	22
1376.78	22
1377.86	26.5
1378.93	23
1380.01	21
1381.09	25.5
1382.16	25
1383.24	22
1384.32	23
1385.39	28
1386.47	24.5
1387.54	28
1388.62	28
1389.69	26
1390.77	26.5
1391.84	24.5
1392.92	25.5
1393.99	26
1395.07	20
1396.14	27.5
1397.21	23.5
1398.29	29
1399.36	26.5
1400.44	27.5
1401.51	28.5
1402.58	33
1403.66	28.5
1404.73	33
1405.8	28.5
1406.87	25.5
1407.95	28.5
1409.02	27
1410.09	28
1411.16	24
1412.23	31.5
1413.3	30
1414.38	30.5
1415.45	29.5
1416.52	27
1417.59	28.5
1418.66	26
1419.73	26.5
1420.8	27
1421.87	24.5
1422.94	24.5
1424.01	24
1425.08	26.5
1426.15	25.5
1427.22	25
1428.29	28
1429.36	26.5
1430.43	23.5
1431.49	27
1432.56	27
1433.63	22
1434.7	29
1435.77	29
1436.83	27
1437.9	26.5
1438.97	25
1440.04	25.5
1441.1	26
1442.17	27
1443.24	27
1444.3	22
1445.37	28
1446.44	21.5
1447.5	24
1448.57	30.5
1449.63	25
1450.7	28
1451.77	22
1452.83	25.5
1453.9	28
1454.96	28
1456.03	27.5
1457.09	25
1458.15	20
1459.22	25
1460.28	23
1461.35	26
1462.41	23.5
1463.47	26
1464.54	24
1465.6	29.5
1466.66	28.5
1467.73	24.5
1468.79	24.5
1469.85	25.5
1470.91	25
1471.98	24
1473.04	26
1474.1	27
1475.16	22.5
1476.22	23
1477.28	23.5
1478.35	22
1479.41	23
1480.47	22.5
1481.53	25.5
1482.59	25
1483.65	28
1484.71	28.5
1485.77	28
1486.83	24.5
1487.89	26.5
1488.95	26
1490.01	28
1491.07	23
1492.13	24
1493.18	22
1494.24	26.5
1495.3	24
1496.36	28
1497.42	25
1498.48	24.5
1499.53	25.5
1500.59	22.5
1501.65	24.5
1502.71	27.5
1503.76	26
1504.82	29
1505.88	24.5
1506.93	24.5
1507.99	26.5
1509.05	28
1510.1	22.5
1511.16	25.5
1512.21	26
1513.27	22
1514.33	24
1515.38	30.5
1516.44	27
1517.49	25
1518.55	26
1519.6	23.5
1520.66	24.5
1521.71	22.5
1522.76	26
1523.82	21
1524.87	28
1525.93	22
1526.98	29
1528.03	21
1529.08	27
1530.14	23.5
1531.19	23.5
1532.24	26
1533.3	25
1534.35	20.5
1535.4	30
1536.45	28.5
1537.5	26.5
1538.56	27
1539.61	27.5
1540.66	24
1541.71	27
1542.76	29
1543.81	26.5
1544.86	26
1545.91	24.5
1546.96	22
1548.01	23
1549.06	26
1550.11	28
1551.16	27.5
1552.21	26
1553.26	22.5
1554.31	24.5
1555.36	30.5
1556.41	25.5
1557.46	29
1558.51	24.5
1559.56	25
1560.6	21
1561.65	25.5
1562.7	24.5
1563.75	23
1564.79	25.5
1565.84	23
1566.89	27.5
1567.94	27.5
1568.98	27.5
1570.03	23
1571.08	28
1572.12	26.5
1573.17	26
1574.22	24
1575.26	23
1576.31	27.5
1577.35	22.5
1578.4	27
1579.44	23.5
1580.49	27
1581.53	26.5
1582.58	26.5
1583.62	24.5
1584.67	24.5
1585.71	22.5
1586.76	27
1587.8	24
1588.84	23
1589.89	26
1590.93	26
1591.97	25.5
1593.02	26
1594.06	24.5
1595.1	30.5
1596.14	24.5
1597.19	22
1598.23	26
1599.27	27
1600.31	23.5
1601.36	26
1602.4	22
1603.44	27
1604.48	23
1605.52	25
1606.56	26
1607.6	25
1608.64	25.5
1609.68	21.5
1610.72	25.5
1611.76	26
1612.81	24
1613.84	25.5
1614.88	27.5
1615.92	25
1616.96	27.5
1618	28.5
1619.04	26.5
1620.08	23.5
1621.12	24
1622.16	24.5
1623.2	24
1624.23	29.5
1625.27	24
1626.31	27
1627.35	23.5
1628.39	24.5
1629.42	22.5
1630.46	29
1631.5	27
1632.53	26
1633.57	25.5
1634.61	24.5
1635.64	27
1636.68	24
1637.72	24.5
1638.75	28
1639.79	23
1640.82	24.5
1641.86	27
1642.89	26
1643.93	21.5
1644.96	27
1646	25
1647.03	29.5
1648.07	26
1649.1	22.5
1650.14	24
1651.17	28
1652.21	24
1653.24	26.5
1654.27	24
1655.31	25
1656.34	24
1657.37	25.5
1658.41	27.5
1659.44	24
1660.47	25
1661.5	26.5
1662.53	24.5
1663.57	30.5
1664.6	25
1665.63	27.5
1666.66	30
1667.69	26
1668.72	25
1669.76	21
1670.79	23.5
1671.82	23
1672.85	28.5
1673.88	27
1674.91	24
1675.94	27.5
1676.97	20.5
1678	27
1679.03	23.5
1680.06	24.5
1681.09	26.5
1682.12	27
1683.15	28.5
1684.17	24
1685.2	25.5
1686.23	25.5
1687.26	24.5
1688.29	26
1689.32	23.5
1690.34	27.5
1691.37	26.5
1692.4	29
1693.43	24.5
1694.45	23.5
1695.48	26.5
1696.51	26.5
1697.54	20
1698.56	28
1699.59	24
1700.61	24
1701.64	24
1702.67	27.5
1703.69	23
1704.72	25.5
1705.74	25
1706.77	29.5
1707.79	25
1708.82	29
1709.84	28.5
1710.87	23
1711.89	21
1712.92	25.5
1713.94	29
1714.97	23
1715.99	24.5
1717.01	26.5
1718.04	25
1719.06	29
1720.08	22
1721.11	23.5
1722.13	23.5
1723.15	26.5
1724.18	23
1725.2	23
1726.22	24.5
1727.24	27
1728.26	27
1729.29	26.5
1730.31	22
1731.33	27
1732.35	27.5
1733.37	24
1734.39	26
1735.41	23.5
1736.43	27
1737.45	25
1738.47	26.5
1739.5	21
1740.52	23
1741.53	25.5
1742.55	23.5
1743.57	25
1744.59	23
1745.61	24.5
1746.63	28.5
1747.65	24
1748.67	25.5
1749.69	23
1750.71	25.5
1751.72	27.5
1752.74	24
1753.76	23.5
1754.78	23
1755.8	23.5
1756.81	23
1757.83	26
1758.85	25.5
1759.87	26.5
1760.88	26
1761.9	24
1762.92	25
1763.93	28.5
1764.95	22
1765.96	27.5
1766.98	24.5
1768	24.5
1769.01	25.5
1770.03	25
1771.04	23
1772.06	25.5
1773.07	23.5
1774.09	26.5
1775.1	27
1776.12	24.5
1777.13	25.5
1778.15	25.5
1779.16	27
1780.17	20
1781.19	26
1782.2	22.5
1783.21	26
1784.23	24.5
1785.24	25.5
1786.25	22.5
1787.27	26.5
1788.28	30
1789.29	24
1790.3	25
1791.32	25.5
1792.33	25
1793.34	25.5
1794.35	25
1795.36	27
1796.38	24.5
1797.39	21.5
1798.4	24.5
1799.41	23.5
1800.42	23.5
1801.43	23.5
1802.44	24
1803.45	26.5
1804.46	24
1805.47	26.5
1806.48	22.5
1807.49	24.5
1808.5	27
1809.51	24.5
1810.52	26.5
1811.53	27
1812.53	23.5
1813.54	21.5
1814.55	28
1815.56	24
1816.57	25
1817.58	22
1818.59	25
1819.59	22
1820.6	24
1821.61	24.5
1822.62	26
1823.62	26.5
1824.63	22.5
1825.64	25
1826.64	24.5
1827.65	21.5
1828.66	27
1829.66	23.5
1830.67	22.5
1831.67	20.5
1832.68	24.5
1833.69	25.5
1834.69	24.5
1835.7	21
1836.7	27
1837.71	26
1838.71	25
1839.72	23
1840.72	26
1841.72	21
1842.73	27
1843.73	22
1844.74	22.5
1845.74	24
1846.74	27
1847.75	21
1848.75	24
1849.75	23.5
1850.76	22
1851.76	22.5
1852.76	27.5
1853.76	25.5
1854.77	26
1855.77	25
1856.77	26
1857.77	23
1858.78	25.5
1859.78	24
1860.78	23
1861.78	26.5
1862.78	24.5
1863.78	24.5
1864.78	26.5
1865.78	27.5
1866.78	22.5
1867.78	21
1868.78	22.5
1869.78	23.5
1870.78	26.5
1871.78	27
1872.78	25
1873.78	22
1874.78	24
1875.78	24.5
1876.78	20
1877.78	27.5
1878.78	23.5
1879.78	23
1880.77	23
1881.77	22
1882.77	27
1883.77	22
1884.77	21.5
1885.76	21
1886.76	22
1887.76	23
1888.75	26
1889.75	27
1890.75	27
1891.74	23.5
1892.74	25
1893.74	25.5
1894.73	24
1895.73	26
1896.73	23.5
1897.72	23.5
1898.72	28.5
1899.71	22.5
1900.71	21
1901.7	24.5
1902.7	24.5
1903.69	26
1904.69	20
1905.68	23
1906.68	23
1907.67	25.5
1908.66	29
1909.66	21
1910.65	24
1911.64	22.5
1912.64	24
1913.63	21
1914.62	20
1915.62	22.5
1916.61	25.5
1917.6	25
1918.6	25
1919.59	22
1920.58	28
1921.57	23
1922.56	29
1923.55	22
1924.55	24
1925.54	21
1926.53	22.5
1927.52	25
1928.51	24
1929.5	24
1930.49	23.5
1931.48	23.5
1932.47	20
1933.46	24.5
1934.45	21.5
1935.44	24.5
1936.43	27
1937.42	30.5
1938.41	25.5
1939.4	25
1940.39	23
1941.38	22
1942.37	23
1943.36	19
1944.35	23
1945.33	24
1946.32	29.5
1947.31	26
1948.3	25
1949.29	23.5
1950.27	24.5
1951.26	24
1952.25	25
1953.24	20.5
1954.22	25
1955.21	20
1956.2	23
1957.18	24
1958.17	28
1959.16	26.5
1960.14	24
1961.13	22.5
1962.11	25
1963.1	21
1964.08	22
1965.07	24
1966.05	21.5
1967.04	26
1968.02	23.5
1969.01	26
1969.99	25.5
1970.98	29.5
1971.96	26.5
1972.95	24
1973.93	23
1974.91	25
1975.9	26
1976.88	25
1977.86	20.5
1978.85	23
1979.83	23
1980.81	25
1981.8	22.5
1982.78	24.5
1983.76	26
1984.74	20.5
1985.73	22.5
1986.71	23.5
1987.69	26
1988.67	24.5
1989.65	21
1990.63	21
1991.62	20.5
1992.6	25
1993.58	24
1994.56	23
1995.54	26
1996.52	20.5
1997.5	20.5
1998.48	21
1999.46	21
2000.44	25
2001.42	23
2002.4	23
2003.38	25.5
2004.36	20.5
2005.34	21
2006.32	26.5
2007.29	25
2008.27	25.5
2009.25	24
2010.23	21.5
2011.21	23
2012.19	26
2013.17	26
2014.14	24
2015.12	26
2016.1	26
2017.07	21
2018.05	22
2019.03	23.5
2020.01	23.5
2020.98	21
2021.96	22
2022.94	27
2023.91	20.5
2024.89	25
2025.86	23.5
2026.84	23.5
2027.82	26
2028.79	21
2029.77	22.5
2030.74	23
2031.72	23
2032.69	23.5
2033.67	25
2034.64	21.5
2035.62	24
2036.59	26
2037.56	27
2038.54	23.5
2039.51	20
2040.49	23
2041.46	23.5
2042.43	23.5
2043.41	22.5
2044.38	24.5
2045.35	24.5
2046.32	24
2047.3	20
2048.27	23.5
2049.24	23
2050.21	24.5
2051.19	23.5
2052.16	27
2053.13	22
2054.1	19.5
2055.07	24.5
2056.05	22
2057.02	26
2057.99	22.5
2058.96	20.5
2059.93	19.5
2060.9	21
2061.87	21.5
2062.84	22
2063.81	26
2064.78	23.5
2065.75	21
2066.72	24.5
2067.69	25
2068.66	25
2069.63	24.5
2070.6	21.5
2071.57	24.5
2072.54	24
2073.5	22
2074.47	25
2075.44	22.5
2076.41	21
2077.38	18.5
2078.35	22
2079.31	21
2080.28	23.5
2081.25	23
2082.22	22.5
2083.18	22
2084.15	24.5
2085.12	23
2086.08	20
2087.05	24.5
2088.02	21.5
2088.98	20.5
2089.95	21.5
2090.92	25.5
2091.88	24
2092.85	26
2093.81	24
2094.78	23
2095.74	24
2096.71	22.5
2097.67	25.5
2098.64	22
2099.6	26.5
2100.57	22.5
2101.53	25
2102.5	25.5
2103.46	27.5
2104.42	20
2105.39	21
2106.35	23.5
2107.32	22
2108.28	24.5
2109.24	26
2110.21	26
2111.17	20.5
2112.13	25.5
2113.09	20
2114.06	24
2115.02	24.5
2115.98	24
2116.94	21.5
2117.91	22.5
2118.87	28
2119.83	22
2120.79	22.5
2121.75	20
2122.71	23
2123.67	27
2124.63	25.5
2125.6	21
2126.56	26.5
2127.52	26
2128.48	20
2129.44	22
2130.4	24
2131.36	26
2132.32	26.5
2133.28	24
2134.23	24
2135.19	25
2136.15	27
2137.11	23.5
2138.07	23
2139.03	25
2139.99	21
2140.95	22
2141.9	21
2142.86	23.9951
2143.82	22.4426
2144.78	24.4846
2145.74	21.0715
2146.69	27.2484
2147.65	20.966
2148.61	22.2633
2149.57	24.1448
2150.52	25.0856
2151.48	21.9892
2152.44	22.8237
2153.39	20.9442
2154.35	23.2023
2155.31	22.2153
2156.26	21.6892
2157.22	24.1185
2158.17	24.9393
2159.13	22.7972
2160.08	22.6239
2161.04	24.2349
2161.99	23.6944
2162.95	22.1405
2163.91	26.0077
2164.86	24.4874
2165.81	22.6812
2166.77	21.3142
2167.72	22.9719
2168.68	25.0231
2169.63	22.7424
2170.58	24.0562
2171.54	20.9125
2172.49	22.5224
2173.45	23.8312
2174.4	21.9844
2175.35	24.7792
2176.31	22.7922
2177.26	22.4684
2178.21	21.9031
2179.16	22.9446
2180.12	21.9075
2181.07	24.7108
2182.02	21.2502
2182.97	21.9432
2183.92	22.4338
2184.88	20.7058
2185.83	22.3721
2186.78	21.8709
2187.73	19.1244
2188.68	22.8705
2189.63	21.0832
2190.58	22.7707
2191.53	25.2287
2192.49	21.0262
2193.43	21.9833
2194.39	21.763
2195.34	21.7303
2196.28	21.4528
2197.24	24.812
2198.19	20.5242
2199.13	22.1219
2200.08	22.4392
2201.03	21.4471
2201.98	23.6382
2202.93	19.0159
2203.88	23.2533
2204.83	23.0726
2205.78	20.4283
2206.73	22.4094
2207.67	22.1299
2208.62	22.3016
2209.57	22.9984
2210.52	20.0875
2211.47	21.3226
2212.41	21.3239
2213.36	23.3098
2214.31	23.6583
2215.26	23.316
2216.2	20.9982
2217.15	20.8568
2218.1	22.3062
2219.04	23.6948
2219.99	24.2913
2220.93	22.7218
2221.88	19.5956
2222.83	24.266
2223.77	22.6968
2224.72	23.4874
2225.66	23.0699
2226.61	23.5076
2227.55	21.954
2228.5	22.5847
2229.44	23.9773
2230.39	24.1529
2231.33	20.9367
2232.28	21.0733
2233.22	22.873
2234.17	23
2235.11	25.2515
2236.06	25.1461
2237	22.6728
2237.94	21.5403
2238.89	21.4927
2239.83	23.7784
2240.06	24.5
2241.01	24.5
2241.96	27
2242.9	21.5
2243.85	21.5
2244.8	22.5
2245.75	22
2246.69	22.5
2247.64	23.5
2248.59	21.5
2249.53	21.5
2250.48	20
2251.43	23
2252.37	25
2253.32	21.5
2254.27	22
2255.21	21.5
2256.16	24
2257.1	20.5
2258.05	24
2259	24
2259.94	23.5
2260.89	23.5
2261.83	19
2262.78	24
2263.72	24.5
2264.67	21
2265.61	23
2266.56	25.5
2267.5	21.5
2268.44	24.5
2269.39	22.5
2270.33	25
2271.27	25
2272.22	23
2273.16	20
2274.1	23
2275.05	21
2275.99	21
2276.93	25
2277.88	24.5
2278.82	25.5
2279.76	18.5
2280.7	23.5
2281.65	24.5
2282.59	26
2283.53	21
2284.47	22
2285.41	22.5
2286.35	23.5
2287.29	26
2288.24	22.5
2289.18	22.5
2290.12	20.5
2291.06	22
2292	26.5
2292.94	22
2293.88	25.5
2294.82	21.5
2295.76	25.5
2296.7	25
2297.64	26
2298.58	24.5
2299.52	22
2300.46	23.5
2301.4	22
2302.34	22
2303.28	24
2304.21	23
2305.15	27.5
2306.09	19
2307.03	24
2307.97	21.5
2308.91	23.5
2309.84	24.5
2310.78	22.5
2311.72	23
2312.66	26.5
2313.59	22
2314.53	24
2315.47	23.5
2316.4	23.5
2317.34	22.5
2318.28	22.5
2319.22	22
2320.15	22.5
2321.09	24.5
2322.02	19.5
2322.96	24
2323.89	22
2324.83	22
2325.77	22.5
2326.7	26.5
2327.64	23.5
2328.57	21.5
2329.51	23.5
2330.44	20
2331.38	23.5
2332.31	22
2333.25	25
2334.18	26.5
2335.11	25.5
2336.05	21.5
2336.98	23.5
2337.92	21.5
2338.85	22
2339.78	23.5
2340.72	24
2341.65	21.5
2342.58	24
2343.52	26.5
2344.45	24
2345.38	26
2346.31	22.5
2347.25	24
2348.18	19
2349.11	21.5
2350.04	25.5
2350.97	23
2351.9	24
2352.84	21.5
2353.77	23.5
2354.7	23
2355.63	23.5
2356.56	22
2357.49	25.5
2358.42	23.5
2359.35	24
2360.28	23.5
2361.21	24.5
2362.14	21.5
2363.07	23
2364	24
2364.93	22
2365.86	26
2366.79	26
2367.72	27
2368.65	22.5
2369.58	22
2370.51	21.5
2371.44	20.5
2372.36	21
2373.29	23
2374.22	21
2375.15	22.5
2376.08	24.5
2377.01	24
2377.93	22.5
2378.86	24
2379.79	24.5
2380.72	22.5
2381.64	24.5
2382.57	25
2383.5	25.5
2384.42	24.5
2385.35	23.5
2386.28	26
2387.2	19
2388.13	23
2389.06	23.5
2389.98	22
2390.91	24.5
2391.83	25
2392.76	26.5
2393.69	25.5
2394.61	21.5
2395.54	18
2396.46	25.5
2397.39	22.5
2398.31	19
2399.23	24
2400.16	23
2401.08	28
2402.01	27
2402.93	23.5
2403.86	25
2404.78	23
2405.7	24.5
2406.63	25
2407.55	18.5
2408.47	25
2409.4	22.5
2410.32	22
2411.24	21
2412.17	24.5
2413.09	20
2414.01	26
2414.93	25
2415.85	21
2416.78	28
2417.7	22
2418.62	19
2419.54	23.5
2420.46	27
2421.38	24.5
2422.31	25
2423.23	26
2424.15	27
2425.07	25
2425.99	24.5
2426.91	24.5
2427.83	22
2428.75	23.5
2429.67	24.5
2430.59	23.5
2431.51	21.5
2432.43	29
2433.35	19
2434.27	22
2435.19	22
2436.11	23
2437.03	23
2437.94	25.5
2438.86	22
2439.78	25
2440.7	28
2441.62	24.5
2442.54	26.5
2443.46	22
2444.37	25
2445.29	21
2446.21	24
2447.13	27
2448.04	24
2448.96	24
2449.88	23
2450.8	25
2451.71	22.5
2452.63	22.5
2453.55	22
2454.46	26
2455.38	23.5
2456.29	27
2457.21	23
2458.13	22.5
2459.04	26
2459.96	23
2460.87	24
2461.79	23
2462.7	21.5
2463.62	21
2464.53	23.5
2465.45	22
2466.36	28.5
2467.28	24
2468.19	29.5
2469.11	26.5
2470.02	23.5
2470.93	23
2471.85	23.5
2472.76	26
2473.67	23
2474.59	24.5
2475.5	24
2476.42	26.5
2477.33	24
2478.24	22
2479.15	25
2480.07	25
2480.98	24.5
2481.89	21
2482.8	25.5
2483.72	26
2484.63	23
2485.54	21
2486.45	24.5
2487.36	20
2488.27	27
2489.19	20
2490.1	26
2491.01	23
2491.92	25.5
2492.83	27
2493.74	25
2494.65	24
2495.56	29
2496.47	22
2497.38	24
2498.29	26
2499.2	23
2500.11	23.5
2501.02	26
2501.93	25.5
2502.84	26.5
2503.75	23
2504.66	23.5
2505.57	24
2506.47	24.5
2507.38	24.5
2508.29	29
2509.2	22.5
2510.11	25.5
2511.02	23.5
2511.92	25.5
2512.83	28
2513.74	24.5
2514.65	23
2515.55	26
2516.46	20
2517.37	22
2518.28	24.5
2519.18	26
2520.09	23.5
2521	26
2521.9	25
2522.81	26.5
2523.72	22.5
2524.62	21.5
2525.53	24
2526.43	26.5
2527.34	26.5
2528.24	25
2529.15	23
2530.06	23
2530.96	24.5
2531.87	22.5
2532.77	24
2533.68	27.5
2534.58	22
2535.48	27
2536.39	24
2537.29	23
2538.2	21
2539.1	23.5
2540	26
2540.91	23
2541.81	24.5
2542.72	26
2543.62	21
2544.52	25
2545.42	20
2546.33	24
2547.23	22.5
2548.13	25
2549.04	22
2549.94	25
2550.84	26
2551.74	26
2552.64	23
2553.55	23.5
2554.45	22
2555.35	24.5
2556.25	23.5
2557.15	23.5
2558.05	22.5
2558.95	27
2559.85	22.5
2560.76	25.5
2561.66	23.5
2562.56	26
2563.46	24.5
2564.36	23.5
2565.26	23
2566.16	26.5
2567.06	23.5
2567.96	21.5
2568.86	22.5
2569.76	24
2570.66	25.5
2571.55	23.5
2572.45	23.5
2573.35	24
2574.25	25.5
2575.15	24
2576.05	29
2576.95	27
2577.84	23
2578.74	24
2579.64	22
2580.54	24
2581.44	26.5
2582.33	22
2583.23	24.5
2584.13	24
2585.03	27.5
2585.92	22
2586.82	24.5
2587.72	24.5
2588.61	22.5
2589.51	20.5
2590.41	28.5
2591.3	23.5
2592.2	24
2593.09	23.5
2593.99	25
2594.89	28.5
2595.78	25.5
2596.68	21
2597.57	23.5
2598.47	28
2599.36	24
2600.26	24.5
2601.15	21
2602.05	24.5
2602.94	23
2603.84	26
2604.73	26
2605.63	22
2606.52	23
2607.41	26.5
2608.31	23.5
2609.2	24.5
2610.09	27.5
2610.99	29
2611.88	24.5
2612.77	23
2613.67	27
2614.56	23
2615.45	24.5
2616.35	24.5
2617.24	24.5
2618.13	25.5
2619.02	21.5
2619.91	21.5
2620.81	19
2621.7	23
2622.59	24
2623.48	20.5
2624.37	26
2625.26	25
2626.15	24.5
2627.05	24.5
2627.94	27
2628.83	26.5
2629.72	27
2630.61	26
2631.5	29
2632.39	21
2633.28	25.5
2634.17	23.5
2635.06	21.5
2635.95	20.5
2636.84	27
2637.73	22.5
2638.62	21.5
2639.51	21.5
2640.4	29
2641.28	22
2642.17	24
2643.06	25
2643.95	24.5
2644.84	23
2645.73	26
2646.62	27.5
2647.5	24
2648.39	24
2649.28	21.5
2650.17	26
2651.05	22
2651.94	22
2652.83	27
2653.72	27
2654.6	26.5
2655.49	26
2656.38	22.5
2657.26	27
2658.15	26.5
2659.04	23.5
2659.92	23
2660.81	23
2661.69	27
2662.58	24
2663.47	24
2664.35	24.5
2665.24	24.5
2666.12	23
2667.01	23
2667.89	26.5
2668.78	23.5
2669.66	23
2670.55	25.5
2671.43	28.5
2672.32	27
2673.2	26
2674.08	24
2674.97	22.5
2675.85	26
2676.74	28
2677.62	22
2678.5	20.5
2679.39	24
2680.27	24
2681.15	28
2682.04	23.5
2682.92	25
2683.8	26.5
2684.68	24.5
2685.57	23
2686.45	22.5
2687.33	24
2688.21	23.5
2689.09	24.5
2689.98	25
2690.86	28
2691.74	23.5
2692.62	25.5
2693.5	23.5
2694.38	26
2695.27	25
2696.15	25
2697.03	23
2697.91	24.5
2698.79	26
2699.67	24
2700.55	24.5
2701.43	22
2702.31	23
2703.19	27
2704.07	23
2704.95	21.5
2705.83	32.5
2706.71	18.5
2707.59	28.5
2708.47	23
2709.34	26.5
2710.22	22.5
2711.1	27.5
2711.98	23
2712.86	26
2713.74	23.5
2714.62	25.5
2715.49	22
2716.37	23
2717.25	25
2718.13	23
2719.01	27.5
2719.88	26.5
2720.76	27.5
2721.64	23
2722.51	20
2723.39	26
2724.27	22.5
2725.14	20
2726.02	21
2726.9	23.5
2727.77	25
2728.65	25.5
2729.53	27
2730.4	23
2731.28	23.5
2732.15	24
2733.03	26
2733.91	24.5
2734.78	21
2735.66	26
2736.53	24.5
2737.41	25
2738.28	22.5
2739.16	20.5
2740.03	25
2740.9	26.5
2741.78	20.5
2742.65	26.5
2743.53	25
2744.4	26
2745.27	22
2746.15	27.5
2747.02	24
2747.89	25
2748.77	24
2749.64	25
2750.51	18.5
2751.39	24
2752.26	22
2753.13	24
2754.01	22
2754.88	26.5
2755.75	25
2756.62	25.5
2757.49	24
2758.37	27
2759.24	23.5
2760.11	25.5
2760.98	22.5
2761.85	23.5
2762.72	22
2763.59	24.5
2764.46	24
2765.34	27.5
2766.21	22
2767.08	20
2767.95	25.5
2768.82	27
2769.69	24
2770.56	23.5
2771.43	27
2772.3	26
2773.17	27
2774.04	22.5
2774.91	22
2775.78	22
2776.65	26
2777.51	23
2778.38	23
2779.25	23.5
2780.12	25.5
2780.99	26
2781.86	26
2782.73	26.5
2783.59	22
2784.46	25
2785.33	25.5
2786.2	27
2787.07	20
2787.93	23
2788.8	25
2789.67	24.5
2790.54	28
2791.4	26
2792.27	22
2793.14	24
2794	28.5
2794.87	21.5
2795.74	24
2796.6	25.5
2797.47	22
2798.34	24
2799.2	26.5
2800.07	24
2800.93	26
2801.8	27.5
2802.66	28
2803.53	26
2804.39	25
2805.26	27.5
2806.12	22
2806.99	26
2807.85	26.5
2808.72	26.5
2809.58	29
2810.45	24
2811.31	24.5
2812.18	24.5
2813.04	23.5
2813.9	25
2814.77	28.5
2815.63	30
2816.49	28.5
2817.36	22
2818.22	24.5
2819.08	29
2819.95	24
2820.81	25.5
2821.67	23
2822.53	24
2823.4	21.5
2824.26	24
2825.12	27
2825.98	30.5
2826.84	24.5
2827.71	27
2828.57	28
2829.43	29
2830.29	25.5
2831.15	26.5
2832.01	26.5
2832.88	25.5
2833.74	27
2834.6	24
2835.46	24
2836.32	26
2837.18	24
2838.04	22.5
2838.9	28
2839.76	28
2840.62	23
2841.48	26.5
2842.34	28
2843.2	27
2844.06	28
2844.92	27
2845.78	25
2846.63	27.5
2847.49	25.5
2848.35	25.5
2849.21	23
2850.07	24.5
2850.93	26
2851.79	23
2852.64	24
2853.5	25
2854.36	24.5
2855.22	23.5
2856.08	27.5
2856.93	27.5
2857.79	26.5
2858.65	27.5
2859.51	28
2860.36	22
2861.22	25.5
2862.08	29.5
2862.93	28.5
2863.79	27
2864.65	27
2865.5	26
2866.36	30
2867.22	28
2868.07	29
2868.93	25
2869.78	28
2870.64	24.5
2871.49	27
2872.35	28.5
2873.21	33
2874.06	27
2874.91	30.5
2875.77	24.5
2876.62	26
2877.48	29.5
2878.33	30.5
2879.19	27.5
2880.04	29
2880.9	30.5
2881.75	34.5
2882.6	29.5
2883.46	31.5
2884.31	27.5
2885.17	34
2886.02	28
2886.87	30
2887.73	33
2888.58	35
2889.43	34
2890.28	34.5
2891.14	37
2891.99	40.5
2892.84	40.5
2893.69	39.5
2894.55	41.5
2895.4	46
2896.25	48
2897.1	47
2897.95	50.5
2898.8	43
2899.66	54
2900.51	58
2901.36	58
2902.21	56.5
2903.06	58.5
2903.91	58.5
2904.76	66.5
2905.61	61.5
2906.46	64.5
2907.31	62.5
2908.16	61.5
2909.01	62.5
2909.86	57
2910.71	54.5
2911.56	55
2912.41	51.5
2913.26	47.5
2914.11	46.5
2914.96	46
2915.81	42.5
2916.66	39.5
2917.51	38
2918.36	36
2919.2	34.5
2920.05	31
2920.9	34.5
2921.75	33
2922.6	30
2923.45	28
2924.29	27.5
2925.14	27
2925.99	29
2926.84	27.5
2927.68	31.5
2928.53	30
2929.38	29.5
2930.23	24.5
2931.07	25.5
2931.92	29
2932.77	29
2933.61	27
2934.46	30.5
2935.3	30.5
2936.15	26.5
2937	31
2937.84	26
2938.69	27
2939.53	24.5
2940.38	25.5
2941.23	26.5
2942.07	29
2942.92	25
2943.76	29.5
2944.61	29.5
2945.45	26
2946.3	21.5
2947.14	26
2947.98	26.5
2948.83	30.5
2949.67	29
2950.52	27
2951.36	29.5
2952.2	29.5
2953.05	28
2953.89	29.5
2954.74	30
2955.58	34.5
2956.42	30.5
2957.27	35
2958.11	35.5
2958.95	35
2959.79	39.5
2960.64	40.5
2961.48	35.5
2962.32	41.5
2963.16	38.5
2964.01	39.5
2964.85	38
2965.69	43.5
2966.53	42
2967.37	45
2968.21	42.5
2969.06	36
2969.9	35
2970.74	39.5
2971.58	35.9903
2972.42	33.9732
2973.26	34.5281
2974.1	31.9661
2974.94	33.029
2975.78	31.2975
2976.62	31.7126
2977.46	31.8015
2978.3	31.8884
2979.14	29.6948
2979.98	28.7961
2980.82	28.1874
2981.66	28.5544
2982.5	27.5241
2983.34	29.9826
2984.18	24.4173
2985.02	23.7144
2985.86	23.8695
2986.7	27.8067
2987.54	25.0394
2988.38	25.681
2989.21	28.0825
2990.05	23.6764
2990.89	25.7972
2991.73	27.5754
2992.57	26.4324
2993.41	26.6058
2994.24	23.9586
2995.08	25.9499
2995.92	24.1854
2996.76	20.9789
2997.59	25.24
2998.43	24.8219
2999.27	26.4713
3000.1	24.8339
3000.94	26.5863
3001.78	26.8541
3002.61	22.7775
3003.45	20.4629
3004.29	24.5529
3005.12	24.5035
3005.96	23.1729
3006.8	22.9963
3007.63	25.2916
3008.47	24.2189
3009.3	23.7312
3010.14	23.9351
3010.97	20.8411
3011.81	22.0639
3012.64	21.4611
3013.48	22.6945
3014.31	22.577
3015.15	24.2212
3015.98	23.6659
3016.82	23.8431
3017.65	25.3299
3018.49	25.3334
3019.32	23.8267
3020.16	22.3688
3020.99	21.6732
3021.82	21.1901
3022.66	22.904
3023.49	22.2377
3024.32	22.6784
3025.16	24.8125
3025.99	23.3093
3026.82	24.7401
3027.66	23.6651
3028.49	23.6389
3029.32	22.87
3030.16	23.5441
3030.99	25.1799
3031.82	23.7259
3032.65	22.716
3033.49	23.1282
3034.32	22.8325
3035.15	23.6934
3035.98	23.6483
3036.81	23.1255
3037.64	22.0345
3038.48	22.289
3039.31	21.3741
3040.14	22.7076
3040.97	22.4691
3041.8	23.8004
3042.63	25.1948
3043.46	25.6053
3044.29	24.7798
3045.12	24.9069
3045.95	22.2076
3046.78	19.8495
3047.61	21.7461
3048.44	23.2969
3049.27	22.0034
3050.1	22.5319
3050.93	22.0364
3051.76	23.3113
3052.59	23.5287
3053.42	21.2534
3054.25	22.7935
3055.08	21.745
3055.91	21.4112
3056.74	22.0689
3057.26	20.5
3058.09	21.5
3058.92	24
3059.76	22.5
3060.59	22.5
3061.42	22.5
3062.26	21
3063.09	22
3063.92	23.5
3064.75	20
3065.59	25
3066.42	22
3067.25	21
3068.08	22
3068.91	21.5
3069.74	16.5
3070.58	21.5
3071.41	21.5
3072.24	25
3073.07	20
3073.9	24
3074.73	19.5
3075.56	25
3076.39	24.5
3077.22	22.5
3078.05	24
3078.88	18.5
3079.71	21.5
3080.55	21.5
3081.38	24
3082.2	27.5
3083.03	23.5
3083.86	26.5
3084.69	23.5
3085.52	22.5
3086.35	24
3087.18	22
3088.01	20
3088.84	22
3089.67	24.5
3090.5	26.5
3091.33	26.5
3092.15	23
3092.98	22.5
3093.81	21.5
3094.64	24
3095.47	23.5
3096.29	23
3097.12	24.5
3097.95	21
3098.78	22
3099.6	22.5
3100.43	22
3101.26	23
3102.09	21.5
3102.91	25.5
3103.74	19
3104.57	20.5
3105.39	20
3106.22	23
3107.05	23
3107.87	23
3108.7	26.5
3109.52	23.5
3110.35	24.5
3111.18	23.5
3112	20
3112.83	21.5
3113.65	24
3114.48	18.5
3115.3	23.5
3116.13	24.5
3116.95	19
3117.78	23
3118.6	24.5
3119.43	26
3120.25	24
3121.08	24
3121.9	21.5
3122.73	20.5
3123.55	25.5
3124.37	24
3125.2	25
3126.02	24.5
3126.84	23
3127.67	20
3128.49	22.5
3129.31	23.5
3130.14	24.5
3130.96	23.5
3131.78	27
3132.61	22
3133.43	24.5
3134.25	17
3135.07	27
3135.9	25
3136.72	27
3137.54	24.5
3138.36	23.5
3139.18	25
3140.01	27.5
3140.83	17
3141.65	26.5
3142.47	23
3143.29	21
3144.11	19.5
3144.93	22.5
3145.75	23
3146.58	23.5
3147.4	21
3148.22	24
3149.04	23
3149.86	23
3150.68	27.5
3151.5	24.5
3152.32	24.5
3153.14	24
3153.96	24.5
3154.78	25
3155.6	19
3156.42	21.5
3157.23	26.5
3158.05	22
3158.87	26
3159.69	20.5
3160.51	23
3161.33	23
3162.15	22
3162.97	23
3163.79	21
3164.6	21
3165.42	24.5
3166.24	25.5
3167.06	24
3167.88	27
3168.69	25.5
3169.51	23.5
3170.33	24.5
3171.15	22.5
3171.96	22
3172.78	20.5
3173.6	25.5
3174.41	25
3175.23	22.5
3176.05	26
3176.86	25
3177.68	23
3178.5	29.5
3179.31	23.5
3180.13	22.5
3180.95	25
3181.76	22.5
3182.58	23
3183.39	20
3184.21	28
3185.02	22.5
3185.84	22.5
3186.65	20.5
3187.47	23.5
3188.28	24
3189.1	23
3189.91	23
3190.73	24
3191.54	20.5
3192.36	26
3193.17	24
3193.99	25
3194.8	22
3195.61	25.5
3196.43	23
3197.24	26
3198.05	24
3198.87	27
3199.68	22
3200.49	27
3201.31	21
3202.12	25
3202.93	26
3203.75	22.5
3204.56	23
3205.37	26
3206.18	24.5
3207	26.5
3207.81	26.5
3208.62	23
3209.43	25.5
3210.24	23
3211.06	24.5
3211.87	21.5
3212.68	26.5
3213.49	27
3214.3	21.5
3215.11	23
3215.92	23
3216.74	23
3217.55	25.5
3218.36	21.5
3219.17	24
3219.98	23.5
3220.79	24
3221.6	22.5
3222.41	24
3223.22	23
3224.03	24
3224.84	23
3225.65	24.5
3226.46	21.5
3227.27	21
3228.08	21.5
3228.89	22.5
3229.7	25
3230.5	23.5
3231.31	24
3232.12	21
3232.93	19
3233.74	23.5
3234.55	20.5
3235.36	24.5
3236.16	25
3236.97	26
3237.78	28
3238.59	25.5
3239.4	22
3240.2	26
3241.01	25.5
3241.82	20.5
3242.63	24.5
3243.43	20
3244.24	25.5
3245.05	26
3245.86	21.5
3246.66	25
3247.47	23.5
3248.28	23
3249.08	19
3249.89	20
3250.69	22.5
3251.5	24
3252.31	25
3253.11	25.5
3253.92	21.5
3254.72	23
3255.53	24.5
3256.34	21.5
3257.14	25
3257.95	24.5
3258.75	26.5
3259.56	23.5
3260.36	21.5
3261.17	24.5
3261.97	24
3262.77	24
3263.58	21
3264.38	25.5
3265.19	24
3265.99	25.5
3266.8	25
3267.6	24.5
3268.4	20
3269.21	21.5
3270.01	24
3270.81	23.5
3271.62	25
3272.42	24
3273.22	24
3274.03	21
3274.83	20
3275.63	22.5
3276.43	20
3277.24	19
3278.04	25.5
3278.84	23.5
3279.64	24
3280.45	29
3281.25	24
3282.05	24
3282.85	23
3283.65	24
3284.46	21
3285.26	24
3286.06	21.5
3286.86	24
3287.66	23
3288.46	26.5
3289.26	27
3290.06	21
3290.86	24
3291.66	21
3292.46	23.5
3293.26	25
3294.06	27.5
3294.86	22.5
3295.66	22
3296.46	24
3297.26	25.5
3298.06	27
3298.86	26
3299.66	23
3300.46	21.5
3301.26	25
3302.06	24.5
3302.86	24
3303.66	24
3304.46	23.5
3305.26	26
3306.05	26.5
3306.85	20
3307.65	25
3308.45	24
3309.25	23
3310.04	29
3310.84	30.5
3311.64	24
3312.44	24.5
3313.24	24.5
3314.03	22.5
3314.83	26.5
3315.63	22.5
3316.42	24
3317.22	24
3318.02	24
3318.82	25
3319.61	28
3320.41	27.5
3321.2	25
3322	25
3322.8	27
3323.59	25.5
3324.39	28
3325.19	20
3325.98	22
3326.78	23.5
3327.57	24.5
3328.37	21.5
3329.16	23.5
3329.96	19.5
3330.75	22.5
3331.55	27.5
3332.34	20
3333.14	24.5
3333.93	23.5
3334.73	22
3335.52	27.5
3336.32	25
3337.11	22
3337.9	18
3338.7	24
3339.49	21.5
3340.29	25
3341.08	24.5
3341.87	21.5
3342.67	24.5
3343.46	24
3344.25	21.5
3345.05	25
3345.84	20
3346.63	22.5
3347.42	25
3348.22	25
3349.01	23.5
3349.8	22
3350.59	23
3351.39	22
3352.18	24
3352.97	23.5
3353.76	29
3354.55	23
3355.35	24
3356.14	22
3356.93	24
3357.72	20
3358.51	20
3359.3	22.5
3360.09	26
3360.88	27
3361.67	26
3362.47	21
3363.26	23
3364.05	23
3364.84	18
3365.63	22
3366.42	22
3367.21	23.5
3368	24
3368.79	25.5
3369.58	23.5
3370.37	22
3371.16	21
3371.95	23
3372.73	24
3373.52	27
3374.31	21
3375.1	27
3375.89	25.5
3376.68	25
3377.47	26
3378.26	26
3379.04	23.5
3379.83	23
3380.62	27
3381.41	24
3382.2	25
3382.98	24
3383.77	22.5
3384.56	25
3385.35	25.5
3386.14	26
3386.92	23.5
3387.71	26
3388.5	23.5
3389.28	28.5
3390.07	24.5
3390.86	19
3391.64	22
3392.43	23
3393.22	24.5
3394	20
3394.79	22.5
3395.58	23
3396.36	22
3397.15	21
3397.93	24.5
3398.72	23.5
3399.5	21
3400.29	24
3401.07	25.5
3401.86	22
3402.65	21
3403.43	24
3404.22	27.5
3405	20.5
3405.79	24.5
3406.57	27.5
3407.35	22
3408.14	24.5
3408.92	23.5
3409.71	24.5
3410.49	20.5
3411.27	24.5
3412.06	19.5
3412.84	21
3413.63	26
3414.41	24.5
3415.19	24.5
3415.98	25
3416.76	22
3417.54	27
3418.32	25
3419.11	23
3419.89	24.5
3420.67	19.5
3421.46	22
3422.24	20.5
3423.02	24.5
3423.8	23
3424.58	24.5
3425.37	24
3426.15	25
3426.93	21
3427.71	25.5
3428.49	22.5
3429.27	23
3430.06	19.5
3430.84	25
3431.62	22.5
3432.4	24
3433.18	23
3433.96	22.5
3434.74	22
3435.52	29.5
3436.3	21
3437.08	25.5
3437.86	24.5
3438.64	21.5
3439.42	22
3440.2	26
3440.98	23
3441.76	20
3442.54	23
3443.32	23
3444.1	23.5
3444.88	22
3445.66	25.5
3446.44	23
3447.22	22
3448	19.5
3448.78	23
3449.55	24
3450.33	24.5
3451.11	24.5
3451.89	22
3452.67	24
3453.45	21
3454.22	24
3455	23.5
3455.78	23
3456.56	22.5
3457.33	23.5
3458.11	25
3458.89	24
3459.67	23
3460.44	22.5
3461.22	21.5
3462	24.5
3462.77	25
3463.55	22
3464.33	22
3465.1	22.5
3465.88	25
3466.66	24.5
3467.43	19
3468.21	26
3468.99	25.5
3469.76	24
3470.54	21.5
3471.31	27.5
3472.09	19
3472.86	25
3473.64	25.5
3474.41	18
3475.19	27
3475.96	22.5
3476.74	23.5
3477.51	19
3478.29	25
3479.06	21
3479.84	22
3480.61	23.5
3481.39	27
3482.16	24
3482.93	26.5
3483.71	24
3484.48	26
3485.26	24
3486.03	24
3486.8	24
3487.58	25
3488.35	23.5
3489.12	21.5
3489.9	22
3490.67	25
3491.44	25
3492.21	22.5
3492.99	20
3493.76	25.5
3494.53	21.5
3495.3	28
3496.08	23
3496.85	24.5
3497.62	26
3498.39	23
3499.16	22
3499.94	21.5
