#Acq. time (s)=	5
#Accumulations=	5
#Range (cm-¹)=	100...3500
#Windows=	4
#Autofocus=	Off
#AutoExposure=	Off
#Spike filter=	Multiple accum.
#Delay time (s)=	0
#Binning=	1
#Readout mode=	Signal
#DeNoise=	Off
#ICS correction=	Off
#Dark correction=	Off
#Inst. Process=	Off
#Instrument=	LabRAM HR Evol
#Detector=	Syncerity OE
#Objective=	x100_VIS
#Grating=	600 (500nm)
#ND Filter=	25%
#Laser=	633nm_Edge
#Hole=	100.021
#Range=	Visible
#Project=	verificaciones
#Sample=	a3
#Site=	plain
#Title=	bolusa3plain
#Remark=	
#Date=	12.01.2026 15:46
#Acquired=	12.01.2026 15:46:31
100.666	29
101.95	27
103.233	29
104.516	31.5
105.799	29.5
107.083	29
108.365	26
109.648	30
110.93	31
112.212	29
113.493	30
114.775	35.5
116.056	29
117.337	28
118.618	29
119.898	28
121.178	32
122.459	30
123.739	32
125.018	32
126.298	33
127.577	31
128.856	28
130.135	34
131.414	32
132.692	33
133.971	31.5
135.249	31
136.525	35
137.803	36
139.08	32
140.357	33
141.634	32
142.911	35
144.188	36
145.464	35
146.74	34
148.015	38
149.291	35
150.566	33.5
151.842	34
153.117	37
154.392	35
155.665	35.5
156.939	38
158.214	38.5
159.488	38
160.76	38.5
162.034	39
163.307	41.5
164.581	42
165.854	39.5
167.125	42.5
168.398	33.5
169.67	32
170.941	32
172.213	39.5
173.485	34
174.756	41
176.026	34
177.298	37.5
178.569	36.5
179.838	38.5
181.109	37
182.379	39
183.648	35
184.918	40.5
186.187	44
187.455	41
188.725	34
189.992	41.5
191.261	34
192.53	37
193.797	39
195.065	38.5
196.332	39.5
197.6	40
198.866	35
200.134	34.5
201.401	35.5
202.667	35
203.933	38
205.199	39.5
206.465	34.5
207.73	37
208.996	27
210.26	35.5
211.526	32
212.79	36
214.055	33
215.319	34.5
216.582	33
217.847	31
219.11	32
220.374	32
221.636	33.5
222.9	27
224.162	31.5
225.424	30.5
226.687	31.5
227.949	29.5
229.212	33
230.473	28.5
231.734	31
232.996	28.5
234.256	31.5
235.517	25.5
236.778	32.5
238.038	31
239.298	30.5
240.559	34
241.818	30
243.077	27
244.337	28
245.596	32.5
246.854	27.5
248.113	28
249.372	31.5
250.63	28
251.887	31.5
253.145	31
254.404	26
255.661	32
256.917	27.5
258.174	28
259.432	29.5
260.688	29.5
261.944	28
263.2	32
264.456	30.5
265.711	27
266.968	28.5
268.223	30
269.477	25
270.732	31
271.986	26
273.24	29
274.494	25
275.748	31
277.003	32
278.257	28.5
279.51	28.5
280.763	28.5
282.015	25
283.268	24
284.52	29.5
285.773	26.5
287.024	25
288.276	27.5
289.528	26
290.779	29.5
292.03	26
293.281	26
294.532	30
295.782	31
297.033	26.5
298.283	28
299.533	24
300.783	29.5
302.032	25.5
303.281	30
304.531	27
305.78	23
307.028	29
308.275	30
309.524	29.5
310.772	30
312.02	30.5
313.267	26
314.515	32.5
315.762	33
317.009	29
318.255	24
319.501	28.5
320.748	30
321.994	31
323.24	32
324.486	25
325.731	28.5
326.976	32
328.221	24.5
329.466	28
330.71	26
331.955	29
333.199	28
334.443	26.5
335.686	25
336.93	27
338.174	26.5
339.417	30
340.659	26.5
341.902	29
343.145	28
344.386	31.5
345.629	30.5
346.871	27.5
348.112	30
349.354	28.5
350.595	25
351.836	29
353.077	29
354.318	30.5
355.557	30.5
356.798	27.5
358.037	27
359.277	29.5
360.518	28
361.756	26.5
362.996	26
364.234	28
365.473	32
366.711	31
367.95	28.5
369.187	26
370.426	31
371.662	23.5
372.901	26
374.137	25.5
375.375	26.5
376.611	28
377.848	28
379.084	23
380.321	27.5
381.556	31.5
382.793	31.5
384.027	26.5
385.264	30
386.498	30.5
387.732	30.5
388.968	26
390.202	27.5
391.437	26.5
392.671	28
393.904	27
395.138	25
396.371	27
397.604	29.5
398.838	26.5
400.07	29
401.302	29
402.536	29
403.768	29
404.999	29.5
406.232	23
407.463	26.5
408.694	24
409.925	27
411.157	26.5
412.387	26
413.617	24
414.847	26.5
416.078	29
417.308	23.5
418.537	29
419.767	27
420.997	29.5
422.226	28.5
423.454	27.5
424.683	31
425.911	29.5
427.139	30
428.368	28.5
429.596	28.5
430.823	24
432.05	27
433.277	28
434.504	27.5
435.731	24.5
436.957	26.5
438.185	26.5
439.411	26.5
440.637	29
441.862	25.5
443.088	28
444.313	28
445.538	28
446.763	30
447.988	27
449.212	27
450.436	26
451.661	22.5
452.884	25
454.108	27.5
455.332	28
456.555	32
457.778	26
459.001	29
460.224	29
461.446	26.5
462.668	23.5
463.891	30
465.111	29
466.333	31.5
467.554	29
468.776	29
469.997	31.5
471.218	33
472.439	34.5
473.659	33.5
474.878	34.5
476.098	37
477.318	41.5
478.538	43
479.758	41
480.977	44
482.195	49.5
483.414	52
484.633	52
485.851	57
487.07	52.5
488.287	55
489.505	57
490.723	55.5
491.94	52.5
493.156	51.5
494.374	53
495.591	48
496.806	42
498.023	41
499.239	40
500.456	41
501.67	41
502.886	43
504.102	38
505.316	37
506.531	35.5
507.745	32.5
508.96	32.5
510.175	34
511.388	38
512.602	27
513.815	33
515.029	32
516.243	34
517.455	29.5
518.669	30.5
519.88	33
521.093	36.5
522.305	29
523.518	29.5
524.729	35.5
525.941	27.5
527.151	30
528.363	29.5
529.574	28
530.785	30
531.995	33
533.206	32
534.416	27
535.626	28.5
536.835	28
538.046	25
539.254	25.5
540.463	29
541.673	30
542.881	23
544.09	27.5
545.298	26.5
546.506	29.5
547.714	34.5
548.922	27.5
550.13	27.5
551.337	29
552.544	28
553.751	24.5
554.958	30.5
556.164	29
557.37	24
558.577	30.5
559.782	29.5
560.987	29.5
562.194	30
563.399	30
564.604	25
565.808	27
567.014	31
568.218	27
569.422	28.5
570.626	29
571.829	29
573.034	28
574.237	28
575.44	32
576.643	26
577.846	28
579.048	27
580.252	26.5
581.454	25
582.656	24.5
583.857	25.5
585.059	26.5
586.26	28
587.461	27.5
588.662	27
589.863	30
591.065	28
592.265	28
593.465	21
594.665	28.5
595.865	27
597.065	28
598.264	26.5
599.463	28.5
600.662	23
601.861	26
603.06	22.5
604.258	28
605.457	25.5
606.655	27.5
607.853	26
609.05	28
610.248	27
611.444	28
612.641	27
613.838	26
615.034	27.5
616.231	25.5
617.427	29
618.624	28
619.82	32.5
621.015	25
622.21	29
623.405	26.5
624.6	27.5
625.795	25.5
626.99	25
628.185	24.5
629.378	25.5
630.572	30.5
631.766	24.5
632.96	28.5
634.154	29
635.346	31.5
636.54	24
637.733	29.5
638.926	28
640.117	29.5
641.31	30.5
642.502	27.5
643.693	27.5
644.885	32.5
646.077	30.5
647.267	23
648.459	25
649.65	28
650.84	28
652.031	30.5
653.222	27
654.411	25.5
655.601	28
656.791	31
657.98	25.5
659.17	30.5
660.358	31
661.547	27
662.737	30.5
663.924	27.5
665.113	32.5
666.3	27
667.489	29.5
668.676	33.5
669.864	30.5
671.05	27
672.238	30.5
673.424	28.5
674.612	31.5
675.798	31.5
676.985	32.5
678.17	30
679.357	33
680.542	35.5
681.728	30
682.913	36.5
684.097	35.5
685.283	32
686.467	33
687.652	32
688.836	37
690.02	32
691.205	32
692.388	33
693.571	29.5
694.755	34.5
695.938	35
697.12	36.5
698.304	36
699.486	36
700.668	37
701.851	35.5
703.032	37.5
704.214	43
705.395	45
706.577	47.5
707.758	44.5
708.939	49.5
710.119	49.5
711.301	42
712.481	40
713.661	38
714.84	36
716.02	28.5
717.201	34
718.38	30
719.559	28
720.737	29.5
721.916	28.5
723.094	27.5
724.274	30.5
725.452	34.5
726.63	28.5
727.808	27
728.985	22
730.162	31.5
731.339	31.5
732.516	29
733.693	29.5
734.87	26.5
736.046	32
737.222	32.5
738.398	26
739.574	28.5
740.75	28
741.925	31
743.1	26.5
744.276	28.5
745.45	28
746.625	31
747.8	26
748.974	26.5
750.148	24
751.322	25
752.496	27
753.67	27.5
754.843	30
756.016	31.5
757.189	28.5
758.362	28
759.534	27.5
760.706	29.5
761.878	28.5
763.051	25.5
764.223	28.5
765.394	29
766.565	26.5
767.736	24
768.907	30.5
770.078	29
771.249	27.5
772.419	24.5
773.589	30.5
774.759	28
775.93	28
777.098	30.5
778.268	27.5
779.438	30.5
780.607	28.5
781.775	32.5
782.944	31.5
784.113	29.5
785.28	30.5
786.449	32.5
787.617	30
788.784	31
789.952	27.5
791.12	32
792.286	26.5
793.453	25.5
794.62	29
795.786	28
796.953	27.5
798.118	29
799.285	29
800.45	29
801.616	27.5
802.782	29
803.946	29.5
805.112	27.5
806.276	28
807.441	28
808.605	26.5
809.77	29
810.933	28.5
812.098	27
813.261	29
814.425	26
815.588	30
816.75	30
817.914	29.5
819.076	27
820.239	29.5
821.401	29.5
822.564	26
823.725	24
824.886	25.5
826.048	26
827.209	26
828.37	29.5
829.532	27
830.692	28
831.852	29
833.013	27.5
834.173	25
835.333	26.5
836.493	26
837.653	29
838.812	27
839.972	26.5
841.13	24
842.289	27
843.447	26.5
844.607	26.5
845.765	26.5
846.922	23.5
848.08	26.5
849.237	25.5
850.396	28.5
851.553	26
852.71	26
853.867	26.5
855.023	26
856.179	28
857.337	26.5
858.493	29
859.649	30.5
860.804	30
861.96	24
863.115	32.5
864.27	24.5
865.425	27
866.58	27
867.734	27.5
868.888	28
870.043	26
871.197	27
872.35	27
873.504	27.5
874.658	27
875.811	30
876.964	28
878.117	31
879.27	29.5
880.422	29.5
881.575	31.5
882.727	28
883.879	23
885.031	25.5
886.182	25.5
887.334	27.5
888.485	29
889.636	28.5
890.787	28.5
891.937	23
893.088	24
894.238	29
895.388	26.5
896.538	26.5
897.688	23
898.837	25.5
899.986	28.5
901.136	25
902.285	24
903.434	30
904.581	25
905.73	25
906.878	25.5
908.027	25.5
909.174	29
910.321	26
911.469	23.5
912.617	25
913.763	25
914.91	28
916.057	25
917.203	23.5
918.35	25.5
919.496	24
920.641	28
921.787	24
922.933	30
924.078	26.5
925.224	24
926.368	21
927.513	25.5
928.658	27.5
929.802	27
930.946	28
932.09	29
933.234	27
934.377	28
935.521	27
936.664	22.5
937.807	24.5
938.95	26.5
940.093	19
941.235	21.5
942.378	23.5
943.519	23
944.662	24.5
945.803	29
946.946	26.5
948.086	25.5
949.227	24
950.369	28
951.509	26.5
952.651	26.5
953.79	26
954.93	27.5
956.071	25
957.211	29.5
958.35	25
959.49	25
960.629	25
961.768	26.5
962.908	23
964.046	28.5
965.184	24
966.323	24.5
967.461	25
968.599	27
969.736	25
970.875	25
972.012	22
973.149	24.5
974.286	23
975.424	24.5
976.56	22.5
977.697	29
978.833	25
979.969	22
981.104	25.5
982.241	30.5
983.377	25
984.512	27
985.647	27
986.782	28.5
987.916	26.5
989.051	25.5
990.185	24.5
991.321	29.5
992.455	29
993.589	30
994.722	30
995.856	22.5
996.989	24.5
998.122	26.5
999.255	21
1000.39	26
1001.52	24
1002.65	29
1003.79	27
1004.92	28
1006.05	23
1007.18	24.5
1008.31	29
1009.44	24.5
1010.57	20
1011.7	25
1012.84	22
1013.97	23
1015.1	26
1016.23	26.5
1017.36	26.5
1018.49	28.5
1019.62	22
1020.75	26
1021.88	22
1023	22
1024.13	26
1025.26	28
1026.39	27.5
1027.52	23
1028.65	27.5
1029.78	26
1030.9	25
1032.03	31
1033.16	24.5
1034.29	27
1035.41	22.5
1036.54	27
1037.67	26
1038.79	27.5
1039.92	19
1041.04	24.5
1042.17	27
1043.3	24.5
1044.42	22
1045.55	24
1046.67	24.5
1047.8	27.5
1048.92	27
1050.05	25.5
1051.17	26
1052.3	27
1053.42	24.5
1054.54	24.5
1055.67	29.5
1056.79	24.5
1057.91	27
1059.04	21
1060.16	28
1061.28	24.5
1062.41	26
1063.53	24.5
1064.65	31
1065.77	25
1066.9	29.5
1068.02	25.5
1069.14	20.5
1070.26	25
1071.38	25
1072.5	27.5
1073.62	22.5
1074.74	25.5
1075.86	27
1076.98	25.5
1078.1	25.5
1079.22	27
1080.34	27.5
1081.46	25.5
1082.58	28.5
1083.7	23.5
1084.82	26
1085.94	25
1087.06	23.5
1088.18	25
1089.29	26.5
1090.41	24.5
1091.53	24
1092.65	27.5
1093.77	23.5
1094.88	20.5
1096	23.5
1097.12	28.5
1098.23	24.5
1099.35	25
1100.47	26
1101.58	23
1102.7	24.5
1103.82	24
1104.93	27
1106.05	28
1107.16	28.5
1108.28	22.5
1109.39	23
1110.51	22
1111.62	23
1112.74	23.5
1113.85	24
1114.96	28
1116.08	25.5
1117.19	25.5
1118.31	20
1119.42	25
1120.53	23
1121.65	25.5
1122.76	25.5
1123.87	24
1124.98	22.5
1126.1	27
1127.21	28
1128.32	22
1129.43	24
1130.54	24
1131.65	23
1132.76	21
1133.88	27.5
1134.99	23.5
1136.1	26
1137.21	23
1138.32	25
1139.43	25.5
1140.54	23.5
1141.65	22.5
1142.76	23
1143.87	22
1144.98	21
1146.08	24.5
1147.19	25
1148.3	22
1149.41	26
1150.52	26.5
1151.63	24
1152.73	22
1153.84	26
1154.95	25.5
1156.06	24.5
1157.17	24
1158.27	23.5
1159.38	27.5
1160.49	23.5
1161.59	20.5
1162.7	23.5
1163.8	26.5
1164.91	24.5
1166.02	24
1167.12	23
1168.23	28.5
1169.33	25.5
1170.44	22
1171.54	23.5
1172.65	26.5
1173.75	22
1174.86	25.5
1175.96	25.5
1177.06	24
1178.17	25
1179.27	27
1180.37	21.5
1181.48	25
1182.58	24.5
1183.68	26
1184.79	24.5
1185.89	25
1186.99	23.5
1188.09	22
1189.2	22.5
1190.3	28
1191.4	23.5
1192.5	25
1193.6	20
1194.7	23.9791
1195.8	22.4683
1196.9	24.0873
1198.01	26.0614
1199.11	26.4931
1200.21	24.9345
1201.31	24.5033
1202.41	22.9382
1203.5	23.7807
1204.6	21.8916
1205.7	22.9343
1206.8	23.2705
1207.9	26.6574
1209	23.099
1210.1	24.2125
1211.2	25.1403
1212.3	27.3571
1213.39	22.7335
1214.49	24.7055
1215.59	25.1121
1216.69	22.9005
1217.78	22.1491
1218.88	23.3947
1219.98	22.3838
1221.08	20.6262
1222.17	22.4515
1223.27	24.7286
1224.37	23.1092
1225.46	22.4223
1226.56	29.6286
1227.65	22.6838
1228.75	23.7266
1229.84	25.2821
1230.94	27.0325
1232.03	22.7399
1233.13	24.2581
1234.22	20.3202
1235.32	24.8917
1236.41	23.0702
1237.51	23.5413
1238.6	23.2166
1239.69	24.5941
1240.79	20.858
1241.88	24.866
1242.97	21.2976
1244.07	23.7172
1245.16	25.4743
1246.25	25.0695
1247.35	23.8042
1248.44	20.2728
1249.53	24.9272
1250.62	24.7123
1251.71	26.5119
1252.81	24.7842
1253.9	25.2817
1254.99	23.4552
1256.08	25.9197
1257.17	23.6586
1258.26	25.046
1259.35	25.9337
1260.44	25.873
1261.53	25.1421
1262.62	25.3313
1263.71	26.4587
1264.8	26.5311
1265.89	24.9753
1266.98	23.2817
1268.07	25.2652
1269.16	25.4225
1270.25	24.7355
1271.34	27.3626
1272.43	23.6877
1273.52	24.8754
1274.6	23.8592
1275.69	24.9837
1276.78	26.1701
1277.87	23.2284
1278.95	21.6286
1280.04	23.1086
1281.13	24.1841
1282.22	22.869
1283.3	25.1761
1284.39	25.6254
1285.48	23.8513
1286.56	25.4449
1287.65	24.8384
1288.73	26.1498
1289.82	25.8326
1290.91	23.3298
1291.99	24.4796
1293.08	21.9496
1294.16	21.4034
1295.24	22.336
1296.33	23.1864
1297.41	24.918
1298.5	24.4618
1299.58	23.8738
1300.67	23.3031
1301.75	23.9396
1302.83	25.5683
1303.92	23.8268
1305	23
1306.08	22.2872
1306.4	22
1307.49	21.5
1308.58	23.5
1309.66	23.5
1310.75	22.5
1311.84	25.5
1312.93	26
1314.01	25
1315.1	24
1316.19	23
1317.27	22
1318.36	30
1319.45	22
1320.53	24
1321.62	25.5
1322.71	23
1323.79	22.5
1324.88	29
1325.96	26
1327.05	25.5
1328.13	23.5
1329.22	22
1330.3	23
1331.39	25.5
1332.47	21.5
1333.55	24
1334.64	24.5
1335.72	29.5
1336.81	24.5
1337.89	27.5
1338.97	21
1340.06	28
1341.14	24
1342.22	27
1343.3	25
1344.39	21
1345.47	27
1346.55	22.5
1347.63	23
1348.71	23
1349.8	22.5
1350.88	28
1351.96	21.5
1353.04	22
1354.12	21
1355.2	24.5
1356.28	25.5
1357.36	28.5
1358.44	24
1359.52	22.5
1360.6	25.5
1361.68	24
1362.76	19
1363.84	23.5
1364.92	28
1366	23.5
1367.08	23.5
1368.16	25.5
1369.23	28
1370.31	25
1371.39	21.5
1372.47	23
1373.55	25
1374.62	24
1375.7	25
1376.78	21.5
1377.86	26
1378.93	21
1380.01	26
1381.09	23.5
1382.16	25.5
1383.24	21
1384.32	27.5
1385.39	24.5
1386.47	23.5
1387.54	21.5
1388.62	27
1389.69	27
1390.77	27
1391.84	23.5
1392.92	24
1393.99	26.5
1395.07	23.5
1396.14	28
1397.21	26
1398.29	24.5
1399.36	26.5
1400.44	29
1401.51	30
1402.58	28
1403.66	26.5
1404.73	29
1405.8	27
1406.87	29
1407.95	27
1409.02	31.5
1410.09	31.5
1411.16	28
1412.23	27.5
1413.3	30
1414.38	29.5
1415.45	28.5
1416.52	26
1417.59	31
1418.66	26
1419.73	23
1420.8	25
1421.87	29.5
1422.94	31
1424.01	28.5
1425.08	28.5
1426.15	27
1427.22	27.5
1428.29	28
1429.36	26
1430.43	26
1431.49	25
1432.56	27.5
1433.63	24.5
1434.7	25
1435.77	24.5
1436.83	23.5
1437.9	28.5
1438.97	24.5
1440.04	26.5
1441.1	26
1442.17	24
1443.24	26.5
1444.3	24
1445.37	27
1446.44	26
1447.5	24
1448.57	24
1449.63	28.5
1450.7	26.5
1451.77	24.5
1452.83	25
1453.9	25
1454.96	25.5
1456.03	26
1457.09	27
1458.15	25.5
1459.22	23
1460.28	22
1461.35	25.5
1462.41	28.5
1463.47	24
1464.54	24.5
1465.6	22.5
1466.66	27.5
1467.73	27.5
1468.79	23
1469.85	21
1470.91	25.5
1471.98	27.5
1473.04	25
1474.1	26.5
1475.16	26.5
1476.22	25
1477.28	27.5
1478.35	24
1479.41	25
1480.47	24.5
1481.53	28.5
1482.59	19
1483.65	26
1484.71	26
1485.77	27.5
1486.83	25.5
1487.89	29
1488.95	30
1490.01	28.5
1491.07	23.5
1492.13	28
1493.18	25.5
1494.24	23
1495.3	26
1496.36	28
1497.42	25
1498.48	24
1499.53	25
1500.59	21.5
1501.65	26
1502.71	27
1503.76	24
1504.82	23
1505.88	24
1506.93	30.5
1507.99	27.5
1509.05	27
1510.1	25.5
1511.16	28
1512.21	25
1513.27	26.5
1514.33	25
1515.38	26
1516.44	28.5
1517.49	26
1518.55	25.5
1519.6	24
1520.66	27
1521.71	23
1522.76	26.5
1523.82	21
1524.87	25
1525.93	23.5
1526.98	24
1528.03	25
1529.08	26
1530.14	26
1531.19	27
1532.24	27
1533.3	26
1534.35	27
1535.4	23.5
1536.45	25.5
1537.5	23
1538.56	27.5
1539.61	30
1540.66	27.5
1541.71	27
1542.76	24
1543.81	26
1544.86	26
1545.91	26
1546.96	24
1548.01	26
1549.06	26
1550.11	26
1551.16	25.5
1552.21	25
1553.26	27
1554.31	25
1555.36	29
1556.41	25.5
1557.46	27.5
1558.51	30.5
1559.56	22
1560.6	25
1561.65	27.5
1562.7	24
1563.75	26.5
1564.79	27.5
1565.84	24.5
1566.89	24
1567.94	24.5
1568.98	28
1570.03	23.5
1571.08	22
1572.12	24
1573.17	27
1574.22	21
1575.26	26
1576.31	23
1577.35	21
1578.4	26.5
1579.44	26
1580.49	30.5
1581.53	26.5
1582.58	26
1583.62	26
1584.67	29
1585.71	24
1586.76	26
1587.8	25
1588.84	25
1589.89	27
1590.93	24.5
1591.97	24
1593.02	25.5
1594.06	24.5
1595.1	25.5
1596.14	26
1597.19	28
1598.23	24
1599.27	27.5
1600.31	25
1601.36	25
1602.4	24
1603.44	27
1604.48	21
1605.52	24
1606.56	26
1607.6	22.5
1608.64	23
1609.68	26
1610.72	21
1611.76	26
1612.81	27
1613.84	23
1614.88	21
1615.92	26
1616.96	25.5
1618	24
1619.04	28
1620.08	25
1621.12	27
1622.16	25.5
1623.2	26.5
1624.23	26
1625.27	28
1626.31	26.5
1627.35	26
1628.39	27
1629.42	24
1630.46	24
1631.5	25.5
1632.53	25
1633.57	20.5
1634.61	26
1635.64	23.5
1636.68	28
1637.72	24.5
1638.75	23.5
1639.79	23.5
1640.82	25.5
1641.86	21.5
1642.89	25.5
1643.93	27
1644.96	27
1646	25.5
1647.03	29
1648.07	24
1649.1	24
1650.14	27
1651.17	26
1652.21	23
1653.24	28
1654.27	25
1655.31	23.5
1656.34	26
1657.37	27.5
1658.41	30
1659.44	24
1660.47	22
1661.5	26
1662.53	23
1663.57	26
1664.6	29
1665.63	26.5
1666.66	26
1667.69	28.5
1668.72	25.5
1669.76	24.5
1670.79	29.5
1671.82	25.5
1672.85	21.5
1673.88	28
1674.91	24.5
1675.94	30
1676.97	25.5
1678	24
1679.03	27
1680.06	27
1681.09	23.5
1682.12	28
1683.15	24.5
1684.17	25
1685.2	25
1686.23	27
1687.26	26.5
1688.29	25.5
1689.32	27
1690.34	23
1691.37	29
1692.4	28.5
1693.43	26.5
1694.45	22.5
1695.48	24
1696.51	25
1697.54	26
1698.56	24
1699.59	24
1700.61	21
1701.64	27
1702.67	22.5
1703.69	25.5
1704.72	25.5
1705.74	27
1706.77	24.5
1707.79	24.5
1708.82	28.5
1709.84	25.5
1710.87	24.5
1711.89	23.5
1712.92	20
1713.94	25
1714.97	25
1715.99	24.5
1717.01	26
1718.04	27
1719.06	27.5
1720.08	25.5
1721.11	23.5
1722.13	24.5
1723.15	24
1724.18	22.5
1725.2	28
1726.22	23.5
1727.24	28
1728.26	26
1729.29	22.5
1730.31	27
1731.33	27
1732.35	22.5
1733.37	24.5
1734.39	20
1735.41	22.5
1736.43	28.5
1737.45	26.5
1738.47	27
1739.5	22.5
1740.52	24.5
1741.53	25
1742.55	22.5
1743.57	27.5
1744.59	23
1745.61	27.5
1746.63	25.5
1747.65	25
1748.67	22
1749.69	28
1750.71	27
1751.72	26
1752.74	28
1753.76	26
1754.78	24
1755.8	22.5
1756.81	27
1757.83	25
1758.85	23
1759.87	26.5
1760.88	26
1761.9	22.5
1762.92	27
1763.93	23.5
1764.95	25.5
1765.96	28
1766.98	27
1768	24
1769.01	26.5
1770.03	26.5
1771.04	20.5
1772.06	24
1773.07	27.5
1774.09	25.5
1775.1	24
1776.12	26.5
1777.13	22
1778.15	27.5
1779.16	23
1780.17	26.5
1781.19	22.5
1782.2	28
1783.21	25
1784.23	25.5
1785.24	24
1786.25	25.5
1787.27	26
1788.28	22.5
1789.29	24
1790.3	24.5
1791.32	24.5
1792.33	24
1793.34	23.5
1794.35	22.5
1795.36	26.5
1796.38	25
1797.39	23
1798.4	24
1799.41	27
1800.42	25
1801.43	27.5
1802.44	21
1803.45	24
1804.46	28.5
1805.47	23
1806.48	22
1807.49	24.5
1808.5	26.5
1809.51	25.5
1810.52	26
1811.53	22
1812.53	25
1813.54	25.5
1814.55	25
1815.56	24
1816.57	25.5
1817.58	23
1818.59	21.5
1819.59	25.5
1820.6	23.5
1821.61	25
1822.62	26.5
1823.62	23.5
1824.63	25
1825.64	26
1826.64	22
1827.65	25.5
1828.66	22
1829.66	19.5
1830.67	25
1831.67	21.5
1832.68	30.5
1833.69	23
1834.69	25
1835.7	28
1836.7	28
1837.71	26
1838.71	27
1839.72	25
1840.72	23.5
1841.72	20
1842.73	24
1843.73	25.5
1844.74	26
1845.74	23
1846.74	26.5
1847.75	24.5
1848.75	22.5
1849.75	23.5
1850.76	24
1851.76	24
1852.76	26
1853.76	21.5
1854.77	26.5
1855.77	28
1856.77	24
1857.77	26.5
1858.78	26
1859.78	24
1860.78	23.5
1861.78	20
1862.78	26
1863.78	24.5
1864.78	25
1865.78	26
1866.78	27.5
1867.78	25.5
1868.78	26
1869.78	22
1870.78	24.5
1871.78	23.5
1872.78	21
1873.78	23
1874.78	22
1875.78	21
1876.78	21
1877.78	22
1878.78	23
1879.78	25.5
1880.77	27.5
1881.77	25
1882.77	23
1883.77	26
1884.77	22
1885.76	24.5
1886.76	24
1887.76	28
1888.75	28.5
1889.75	22
1890.75	25.5
1891.74	25.5
1892.74	21
1893.74	26
1894.73	24.5
1895.73	27.5
1896.73	23
1897.72	26
1898.72	23
1899.71	23
1900.71	23
1901.7	24
1902.7	24
1903.69	22.5
1904.69	21.5
1905.68	25
1906.68	26
1907.67	26
1908.66	26.5
1909.66	25.5
1910.65	27
1911.64	25.5
1912.64	24
1913.63	25
1914.62	23
1915.62	25
1916.61	27.5
1917.6	26
1918.6	24.5
1919.59	22
1920.58	21
1921.57	23.5
1922.56	27
1923.55	25.5
1924.55	22.5
1925.54	23
1926.53	27.5
1927.52	27
1928.51	26
1929.5	28
1930.49	22
1931.48	24.5
1932.47	20.5
1933.46	25
1934.45	24.5
1935.44	24
1936.43	23
1937.42	24
1938.41	24.5
1939.4	26.5
1940.39	21
1941.38	23
1942.37	18.5
1943.36	22.5
1944.35	22
1945.33	24
1946.32	25
1947.31	25
1948.3	24.5
1949.29	23.5
1950.27	23
1951.26	22.5
1952.25	29.5
1953.24	25.5
1954.22	21
1955.21	26
1956.2	26
1957.18	23.5
1958.17	28
1959.16	24.5
1960.14	22
1961.13	26
1962.11	23.5
1963.1	26
1964.08	24.5
1965.07	24
1966.05	22
1967.04	19.5
1968.02	25
1969.01	29.5
1969.99	26
1970.98	24
1971.96	24
1972.95	23.5
1973.93	23.5
1974.91	31
1975.9	26
1976.88	26.5
1977.86	25
1978.85	22
1979.83	24.5
1980.81	29
1981.8	23
1982.78	19
1983.76	23.5
1984.74	21.5
1985.73	24
1986.71	22
1987.69	24
1988.67	25
1989.65	24
1990.63	24.5
1991.62	26.5
1992.6	27
1993.58	23
1994.56	25
1995.54	23.5
1996.52	23.5
1997.5	24
1998.48	23.5
1999.46	23.5
2000.44	20
2001.42	22.5
2002.4	23
2003.38	24.5
2004.36	18.5
2005.34	24.5
2006.32	24
2007.29	25
2008.27	24
2009.25	24.5
2010.23	24
2011.21	23
2012.19	22
2013.17	22.5
2014.14	24
2015.12	20
2016.1	23
2017.07	25.5
2018.05	21
2019.03	23
2020.01	26
2020.98	24.5
2021.96	22.5
2022.94	21.5
2023.91	25
2024.89	24
2025.86	25
2026.84	29
2027.82	24.5
2028.79	22
2029.77	24.5
2030.74	24
2031.72	23.5
2032.69	24.5
2033.67	24.5
2034.64	24.5
2035.62	24.5
2036.59	27.5
2037.56	21
2038.54	25.5
2039.51	20.5
2040.49	26
2041.46	26
2042.43	27
2043.41	24
2044.38	25
2045.35	20.5
2046.32	23
2047.3	27
2048.27	21
2049.24	24
2050.21	25.5
2051.19	29
2052.16	24
2053.13	21
2054.1	27.5
2055.07	19.5
2056.05	21
2057.02	22
2057.99	26
2058.96	23
2059.93	25.5
2060.9	23
2061.87	26.5
2062.84	24.5
2063.81	22
2064.78	22.5
2065.75	20
2066.72	20.5
2067.69	23
2068.66	30.5
2069.63	22
2070.6	27
2071.57	19
2072.54	27
2073.5	23.5
2074.47	22.5
2075.44	22.5
2076.41	22.5
2077.38	26
2078.35	26
2079.31	21
2080.28	26
2081.25	20.5
2082.22	23
2083.18	22.5
2084.15	21.5
2085.12	25
2086.08	28.5
2087.05	22
2088.02	23.5
2088.98	26
2089.95	25
2090.92	16
2091.88	21
2092.85	23.5
2093.81	25.5
2094.78	19
2095.74	24.5
2096.71	22
2097.67	25
2098.64	23.5
2099.6	24
2100.57	22.5
2101.53	26
2102.5	20.5
2103.46	21.5
2104.42	23.5
2105.39	21.5
2106.35	22.5
2107.32	21.5
2108.28	23.5
2109.24	25.5
2110.21	22
2111.17	26
2112.13	21.5
2113.09	24
2114.06	26.5
2115.02	21
2115.98	27
2116.94	25.5
2117.91	29.5
2118.87	24
2119.83	23.5
2120.79	24
2121.75	23.5
2122.71	22.5
2123.67	24.5
2124.63	19.5
2125.6	23.5
2126.56	24.5
2127.52	23
2128.48	18
2129.44	24.5
2130.4	22.5
2131.36	26.5
2132.32	26.5
2133.28	25.5
2134.23	22
2135.19	24
2136.15	24
2137.11	22.5
2138.07	20.5
2139.03	20
2139.99	26.5
2140.95	26
2141.9	21.5
2142.86	25.9835
2143.82	22.9517
2144.78	23.4873
2145.74	26.016
2146.69	22.0632
2147.65	22.3471
2148.61	27.6213
2149.57	24.8464
2150.52	23.274
2151.48	25.5006
2152.44	24.261
2153.39	23.2459
2154.35	22.0399
2155.31	22.7013
2156.26	19.8676
2157.22	20.2091
2158.17	24.4906
2159.13	18.8537
2160.08	21.4606
2161.04	23.3943
2161.99	22.5842
2162.95	21.6869
2163.91	22.5278
2164.86	21.7469
2165.81	22.6759
2166.77	23.8809
2167.72	23.9987
2168.68	26.3832
2169.63	23.9889
2170.58	25.9216
2171.54	21.2048
2172.49	21.1705
2173.45	20.3071
2174.4	24.015
2175.35	22.5673
2176.31	21.2071
2177.26	22.8956
2178.21	22.2087
2179.16	22.4341
2180.12	24.1537
2181.07	22.6843
2182.02	22.216
2182.97	21.1961
2183.92	20.6203
2184.88	21.9522
2185.83	25.1756
2186.78	20.5748
2187.73	23.6913
2188.68	21.9198
2189.63	20.891
2190.58	18.3345
2191.53	24.4787
2192.49	22.7519
2193.43	22.0194
2194.39	22.4284
2195.34	21.7691
2196.28	22.1785
2197.24	21.9417
2198.19	21.996
2199.13	22.1437
2200.08	23.9515
2201.03	22.8147
2201.98	22.0915
2202.93	21.2208
2203.88	22.1387
2204.83	21.3483
2205.78	22.6245
2206.73	22.3644
2207.67	23.052
2208.62	24.361
2209.57	23.0251
2210.52	21.3909
2211.47	23.6441
2212.41	22.0613
2213.36	23.7859
2214.31	21.4944
2215.26	24.0595
2216.2	22.008
2217.15	24.5593
2218.1	20.9979
2219.04	22.9188
2219.99	23.2388
2220.93	20.2952
2221.88	20.5152
2222.83	21.6267
2223.77	22.585
2224.72	22.2268
2225.66	21.7204
2226.61	22.2088
2227.55	21.9033
2228.5	23.1232
2229.44	23.5558
2230.39	21.5297
2231.33	24.6092
2232.28	21.2937
2233.22	20.9045
2234.17	22.5417
2235.11	22.1012
2236.06	20.4485
2237	22.7009
2237.94	24.2373
2238.89	22.6006
2239.83	22.7158
2240.06	23
2241.01	22.5
2241.96	23
2242.9	24
2243.85	21.5
2244.8	20
2245.75	25.5
2246.69	20.5
2247.64	23
2248.59	22
2249.53	25.5
2250.48	21
2251.43	24
2252.37	22
2253.32	24
2254.27	26
2255.21	23.5
2256.16	24.5
2257.1	20.5
2258.05	20.5
2259	18.5
2259.94	20.5
2260.89	24
2261.83	23.5
2262.78	21.5
2263.72	23.5
2264.67	20
2265.61	19
2266.56	23
2267.5	20.5
2268.44	23
2269.39	24
2270.33	23
2271.27	21
2272.22	24
2273.16	22
2274.1	23
2275.05	23
2275.99	25
2276.93	21
2277.88	22.5
2278.82	22
2279.76	22.5
2280.7	21
2281.65	23.5
2282.59	22
2283.53	22
2284.47	22
2285.41	23.5
2286.35	21.5
2287.29	22
2288.24	21
2289.18	21
2290.12	24.5
2291.06	25
2292	21.5
2292.94	23.5
2293.88	23
2294.82	26.5
2295.76	22
2296.7	24
2297.64	20.5
2298.58	17.5
2299.52	23
2300.46	23
2301.4	25
2302.34	23
2303.28	22
2304.21	23
2305.15	23.5
2306.09	26
2307.03	21.5
2307.97	21.5
2308.91	25
2309.84	20.5
2310.78	23.5
2311.72	19
2312.66	22
2313.59	21
2314.53	23.5
2315.47	24
2316.4	22
2317.34	26
2318.28	24.5
2319.22	25
2320.15	25
2321.09	25.5
2322.02	25.5
2322.96	23
2323.89	23
2324.83	22.5
2325.77	23.5
2326.7	25
2327.64	22
2328.57	23.5
2329.51	26
2330.44	25.5
2331.38	26
2332.31	20.5
2333.25	22.5
2334.18	27
2335.11	21.5
2336.05	27
2336.98	19.5
2337.92	22
2338.85	24
2339.78	23
2340.72	27
2341.65	26
2342.58	23.5
2343.52	27
2344.45	26.5
2345.38	25
2346.31	25.5
2347.25	25.5
2348.18	22
2349.11	23.5
2350.04	23.5
2350.97	25.5
2351.9	22
2352.84	24
2353.77	23.5
2354.7	21
2355.63	23.5
2356.56	25
2357.49	23
2358.42	23.5
2359.35	25
2360.28	23.5
2361.21	26
2362.14	23
2363.07	24
2364	20
2364.93	24
2365.86	27
2366.79	27.5
2367.72	23
2368.65	24
2369.58	22
2370.51	22
2371.44	28
2372.36	22
2373.29	20
2374.22	23.5
2375.15	22
2376.08	23
2377.01	22
2377.93	26.5
2378.86	21
2379.79	23.5
2380.72	23.5
2381.64	23.5
2382.57	26
2383.5	27.5
2384.42	20.5
2385.35	25.5
2386.28	24
2387.2	24
2388.13	24
2389.06	24.5
2389.98	22
2390.91	21.5
2391.83	22.5
2392.76	22
2393.69	23
2394.61	22
2395.54	22.5
2396.46	26
2397.39	23
2398.31	26
2399.23	23
2400.16	22.5
2401.08	23.5
2402.01	23
2402.93	26
2403.86	22.5
2404.78	20.5
2405.7	25.5
2406.63	24
2407.55	25
2408.47	22.5
2409.4	26
2410.32	23
2411.24	24
2412.17	24
2413.09	24.5
2414.01	22
2414.93	22
2415.85	25.5
2416.78	27
2417.7	23.5
2418.62	21.5
2419.54	27.5
2420.46	25
2421.38	24.5
2422.31	23
2423.23	24
2424.15	21.5
2425.07	21.5
2425.99	23
2426.91	23
2427.83	25
2428.75	26
2429.67	18
2430.59	26.5
2431.51	23
2432.43	21
2433.35	22.5
2434.27	25
2435.19	25.5
2436.11	21
2437.03	22
2437.94	26.5
2438.86	25.5
2439.78	22
2440.7	22
2441.62	25
2442.54	25
2443.46	23
2444.37	26
2445.29	22.5
2446.21	24.5
2447.13	25
2448.04	21
2448.96	24
2449.88	26
2450.8	22
2451.71	21
2452.63	22
2453.55	23
2454.46	24
2455.38	26
2456.29	28
2457.21	24.5
2458.13	21.5
2459.04	22
2459.96	22.5
2460.87	22.5
2461.79	21.5
2462.7	24
2463.62	22
2464.53	24.5
2465.45	20.5
2466.36	25.5
2467.28	22.5
2468.19	25
2469.11	26.5
2470.02	20.5
2470.93	23.5
2471.85	23
2472.76	21.5
2473.67	26.5
2474.59	20
2475.5	24
2476.42	23.5
2477.33	25
2478.24	23
2479.15	27
2480.07	25.5
2480.98	21.5
2481.89	25
2482.8	26
2483.72	23
2484.63	27
2485.54	22
2486.45	25
2487.36	21.5
2488.27	25
2489.19	21.5
2490.1	27
2491.01	23
2491.92	23
2492.83	23
2493.74	26
2494.65	24
2495.56	27.5
2496.47	23.5
2497.38	23
2498.29	21.5
2499.2	24
2500.11	26
2501.02	26.5
2501.93	24
2502.84	22
2503.75	21.5
2504.66	22.5
2505.57	23
2506.47	23
2507.38	23.5
2508.29	22
2509.2	25.5
2510.11	22
2511.02	25
2511.92	25.5
2512.83	30
2513.74	23
2514.65	27
2515.55	22
2516.46	23
2517.37	23
2518.28	26
2519.18	24.5
2520.09	23
2521	24.5
2521.9	24.5
2522.81	24.5
2523.72	24.5
2524.62	26.5
2525.53	29
2526.43	22.5
2527.34	17
2528.24	18.5
2529.15	29.5
2530.06	24
2530.96	26
2531.87	24.5
2532.77	25.5
2533.68	24.5
2534.58	24.5
2535.48	23.5
2536.39	25
2537.29	26.5
2538.2	27
2539.1	19
2540	19
2540.91	26.5
2541.81	22
2542.72	23
2543.62	27.5
2544.52	21
2545.42	23
2546.33	26
2547.23	27.5
2548.13	26.5
2549.04	25
2549.94	22.5
2550.84	24
2551.74	22.5
2552.64	19.5
2553.55	25.5
2554.45	22.5
2555.35	26
2556.25	25.5
2557.15	23
2558.05	25.5
2558.95	23.5
2559.85	24.5
2560.76	25.5
2561.66	22
2562.56	25
2563.46	26.5
2564.36	27.5
2565.26	24.5
2566.16	22
2567.06	29
2567.96	23.5
2568.86	22.5
2569.76	26
2570.66	22
2571.55	26.5
2572.45	23
2573.35	24.5
2574.25	26
2575.15	19.5
2576.05	25
2576.95	27
2577.84	28.5
2578.74	23.5
2579.64	24
2580.54	25
2581.44	21.5
2582.33	22.5
2583.23	26
2584.13	23
2585.03	23
2585.92	22.5
2586.82	25.5
2587.72	23.5
2588.61	27
2589.51	22.5
2590.41	26.5
2591.3	22.5
2592.2	23.5
2593.09	19.5
2593.99	26.5
2594.89	21
2595.78	24.5
2596.68	24
2597.57	23
2598.47	24
2599.36	23.5
2600.26	23.5
2601.15	25
2602.05	26
2602.94	26.5
2603.84	24
2604.73	27
2605.63	23.5
2606.52	24.5
2607.41	20.5
2608.31	26.5
2609.2	25
2610.09	25
2610.99	26.5
2611.88	27.5
2612.77	25.5
2613.67	24.5
2614.56	25.5
2615.45	22.5
2616.35	25.5
2617.24	24.5
2618.13	22
2619.02	26.5
2619.91	24.5
2620.81	23
2621.7	23
2622.59	23.5
2623.48	25
2624.37	23
2625.26	26.5
2626.15	23
2627.05	24
2627.94	22
2628.83	21
2629.72	24.5
2630.61	25
2631.5	24
2632.39	25
2633.28	24
2634.17	28.5
2635.06	25.5
2635.95	24.5
2636.84	27
2637.73	25.5
2638.62	23.5
2639.51	25.5
2640.4	23.5
2641.28	20.5
2642.17	27
2643.06	21
2643.95	23
2644.84	21
2645.73	24
2646.62	25
2647.5	24.5
2648.39	28.5
2649.28	24
2650.17	24.5
2651.05	25.5
2651.94	25.5
2652.83	25
2653.72	25
2654.6	23.5
2655.49	24.5
2656.38	25
2657.26	24
2658.15	25
2659.04	26.5
2659.92	24
2660.81	22.5
2661.69	23.5
2662.58	23.5
2663.47	22.5
2664.35	22.5
2665.24	26.5
2666.12	28.5
2667.01	26.5
2667.89	26.5
2668.78	25.5
2669.66	25
2670.55	24
2671.43	24.5
2672.32	25
2673.2	23
2674.08	26
2674.97	22.5
2675.85	26.5
2676.74	26.5
2677.62	24.5
2678.5	23
2679.39	22.5
2680.27	24.5
2681.15	25
2682.04	24.5
2682.92	25
2683.8	23
2684.68	26.5
2685.57	21
2686.45	25
2687.33	25.5
2688.21	24.5
2689.09	22.5
2689.98	24.5
2690.86	22.5
2691.74	22
2692.62	24.5
2693.5	22.5
2694.38	21
2695.27	20
2696.15	22
2697.03	24
2697.91	26
2698.79	24
2699.67	27.5
2700.55	25
2701.43	27
2702.31	22.5
2703.19	24.5
2704.07	23
2704.95	23.5
2705.83	23.5
2706.71	23
2707.59	27
2708.47	24
2709.34	27
2710.22	22.5
2711.1	22.5
2711.98	24.5
2712.86	21.5
2713.74	20.5
2714.62	26
2715.49	23
2716.37	24
2717.25	23
2718.13	22.5
2719.01	25.5
2719.88	25
2720.76	24.5
2721.64	21
2722.51	25
2723.39	26
2724.27	25
2725.14	25.5
2726.02	26.5
2726.9	21.5
2727.77	25
2728.65	25.5
2729.53	21
2730.4	22
2731.28	23
2732.15	23
2733.03	28
2733.91	26.5
2734.78	22
2735.66	22.5
2736.53	25.5
2737.41	25
2738.28	24
2739.16	22
2740.03	21
2740.9	20
2741.78	25
2742.65	22.5
2743.53	24.5
2744.4	26.5
2745.27	22.5
2746.15	24
2747.02	26
2747.89	22
2748.77	24.5
2749.64	26
2750.51	25.5
2751.39	25
2752.26	24
2753.13	25
2754.01	22
2754.88	27.5
2755.75	26
2756.62	16
2757.49	24
2758.37	22.5
2759.24	25.5
2760.11	24
2760.98	26
2761.85	23.5
2762.72	25
2763.59	28
2764.46	26
2765.34	26
2766.21	24
2767.08	21
2767.95	27
2768.82	25
2769.69	20.5
2770.56	24.5
2771.43	20
2772.3	26
2773.17	23.5
2774.04	26.5
2774.91	25.5
2775.78	21.5
2776.65	20
2777.51	27
2778.38	25.5
2779.25	26.5
2780.12	24.5
2780.99	26
2781.86	28
2782.73	28.5
2783.59	25.5
2784.46	26
2785.33	23.5
2786.2	25.5
2787.07	27
2787.93	25.5
2788.8	25
2789.67	26.5
2790.54	24
2791.4	26
2792.27	28.5
2793.14	25
2794	24
2794.87	29
2795.74	25
2796.6	23.5
2797.47	23.5
2798.34	28
2799.2	21
2800.07	25
2800.93	24.75
2801.8	24
2802.66	26
2803.53	26
2804.39	27
2805.26	22
2806.12	20
2806.99	28.5
2807.85	27
2808.72	27.5
2809.58	29.5
2810.45	25.5
2811.31	26
2812.18	26
2813.04	26.5
2813.9	24
2814.77	24.5
2815.63	24.5
2816.49	25.5
2817.36	24
2818.22	24.5
2819.08	28
2819.95	24
2820.81	26.5
2821.67	25.5
2822.53	27.5
2823.4	23.5
2824.26	26.5
2825.12	27
2825.98	24
2826.84	23.5
2827.71	26.5
2828.57	26.5
2829.43	21
2830.29	22.5
2831.15	26
2832.01	26
2832.88	25.5
2833.74	28
2834.6	24
2835.46	25.5
2836.32	22.5
2837.18	26
2838.04	22
2838.9	24.5
2839.76	23
2840.62	26
2841.48	29
2842.34	27
2843.2	24.5
2844.06	28
2844.92	25
2845.78	26.5
2846.63	22.5
2847.49	26.5
2848.35	25
2849.21	25.5
2850.07	26
2850.93	24
2851.79	27.5
2852.64	25.5
2853.5	30
2854.36	28.5
2855.22	28
2856.08	28.5
2856.93	24.5
2857.79	22.5
2858.65	27.5
2859.51	28
2860.36	25.5
2861.22	22
2862.08	26.5
2862.93	26
2863.79	25.5
2864.65	23
2865.5	29
2866.36	25
2867.22	26.5
2868.07	26
2868.93	25.5
2869.78	24
2870.64	24.5
2871.49	28
2872.35	30.5
2873.21	29
2874.06	22.5
2874.91	28
2875.77	28.5
2876.62	28
2877.48	34.5
2878.33	30
2879.19	30.5
2880.04	31.5
2880.9	35
2881.75	32
2882.6	31.5
2883.46	36.5
2884.31	31.5
2885.17	35
2886.02	34
2886.87	32
2887.73	33
2888.58	33.5
2889.43	33
2890.28	41.5
2891.14	36
2891.99	36
2892.84	39
2893.69	41.5
2894.55	41
2895.4	48
2896.25	50
2897.1	51
2897.95	47
2898.8	50
2899.66	53
2900.51	54.5
2901.36	60.5
2902.21	60
2903.06	58.5
2903.91	61.5
2904.76	65.5
2905.61	65.5
2906.46	63.5
2907.31	63.5
2908.16	57.5
2909.01	60
2909.86	58
2910.71	61.5
2911.56	58.5
2912.41	51
2913.26	47
2914.11	46
2914.96	44
2915.81	44
2916.66	37.5
2917.51	39.5
2918.36	42
2919.2	35.5
2920.05	34
2920.9	38.5
2921.75	33
2922.6	31.5
2923.45	30
2924.29	30
2925.14	32.5
2925.99	26.5
2926.84	32.5
2927.68	27
2928.53	30.5
2929.38	27
2930.23	30
2931.07	28.5
2931.92	28
2932.77	28
2933.61	30
2934.46	23
2935.3	27
2936.15	24
2937	27.5
2937.84	29
2938.69	25
2939.53	28.5
2940.38	22
2941.23	28
2942.07	25.5
2942.92	28.5
2943.76	26
2944.61	26
2945.45	27
2946.3	27
2947.14	27
2947.98	28.5
2948.83	25
2949.67	28
2950.52	30
2951.36	30.5
2952.2	35
2953.05	32
2953.89	29
2954.74	33.5
2955.58	27
2956.42	29
2957.27	35
2958.11	39
2958.95	33
2959.79	35
2960.64	40.5
2961.48	37
2962.32	41
2963.16	40
2964.01	41
2964.85	42
2965.69	42
2966.53	39
2967.37	39
2968.21	43
2969.06	35
2969.9	46
2970.74	34
2971.58	33.0049
2972.42	34.9185
2973.26	33.5239
2974.1	32.6467
2974.94	33.1353
2975.78	33.9388
2976.62	30.1015
2977.46	29.0852
2978.3	31.1214
2979.14	31.6544
2979.98	26.4818
2980.82	24.7159
2981.66	26.5731
2982.5	26.3353
2983.34	28.9507
2984.18	28.2886
2985.02	28.3883
2985.86	24.1839
2986.7	25.6335
2987.54	27.5447
2988.38	25.1151
2989.21	23.8805
2990.05	26.3698
2990.89	21.5435
2991.73	26.0473
2992.57	25.6911
2993.41	25.4472
2994.24	23.1576
2995.08	22.1073
2995.92	25.2183
2996.76	24.0905
2997.59	23.4603
2998.43	24.0717
2999.27	24.3087
3000.1	23.8716
3000.94	23.9272
3001.78	23.7044
3002.61	25.0712
3003.45	23.9678
3004.29	23.7034
3005.12	22.4665
3005.96	22.2531
3006.8	23.3346
3007.63	23.8392
3008.47	22.5651
3009.3	24.2201
3010.14	21.6205
3010.97	19.9223
3011.81	20.4154
3012.64	20.5029
3013.48	22.6011
3014.31	23.635
3015.15	24.5382
3015.98	24.4394
3016.82	21.2036
3017.65	22.6711
3018.49	23.7938
3019.32	22.3267
3020.16	24.5608
3020.99	24.3632
3021.82	24.0981
3022.66	23.5011
3023.49	21.3528
3024.32	22.5989
3025.16	23.6432
3025.99	23.8329
3026.82	23.5121
3027.66	20.7399
3028.49	22.665
3029.32	24.1532
3030.16	24.2627
3030.99	22.247
3031.82	22.2683
3032.65	20.903
3033.49	20.6914
3034.32	21.8826
3035.15	23.5711
3035.98	24.0491
3036.81	24.3215
3037.64	22.4006
3038.48	23.2438
3039.31	21.2909
3040.14	24.8171
3040.97	23.482
3041.8	21.6351
3042.63	23.28
3043.46	21.4346
3044.29	21.5849
3045.12	22.9762
3045.95	21.9621
3046.78	22.2366
3047.61	23.1363
3048.44	22.6432
3049.27	22.0713
3050.1	21.9413
3050.93	21.6143
3051.76	19.2024
3052.59	21.4794
3053.42	22.1348
3054.25	23.0884
3055.08	22.6988
3055.91	23.3876
3056.74	22.076
3057.26	25.5
3058.09	24.5
3058.92	25
3059.76	24
3060.59	21
3061.42	22
3062.26	23
3063.09	22.5
3063.92	23.5
3064.75	23
3065.59	22.5
3066.42	23
3067.25	21.5
3068.08	24
3068.91	24
3069.74	24
3070.58	23
3071.41	26
3072.24	20
3073.07	22
3073.9	21
3074.73	18.5
3075.56	23
3076.39	24
3077.22	20
3078.05	24.5
3078.88	21.5
3079.71	23
3080.55	21.5
3081.38	22.5
3082.2	26
3083.03	24.5
3083.86	20.5
3084.69	25.5
3085.52	21.5
3086.35	20
3087.18	22.5
3088.01	26
3088.84	20
3089.67	21.5
3090.5	25
3091.33	18
3092.15	21
3092.98	23
3093.81	24
3094.64	23.5
3095.47	22
3096.29	23.5
3097.12	28
3097.95	26
3098.78	23.5
3099.6	26
3100.43	20
3101.26	21.5
3102.09	24
3102.91	21
3103.74	23
3104.57	26.5
3105.39	22
3106.22	24.5
3107.05	25
3107.87	24
3108.7	24
3109.52	26
3110.35	26.5
3111.18	26.5
3112	28
3112.83	20.5
3113.65	24
3114.48	26.5
3115.3	21.5
3116.13	23
3116.95	20
3117.78	24
3118.6	26
3119.43	22.5
3120.25	24.5
3121.08	24
3121.9	23.5
3122.73	21
3123.55	22
3124.37	23
3125.2	21
3126.02	21
3126.84	25.5
3127.67	19
3128.49	26
3129.31	24.5
3130.14	23.5
3130.96	24.5
3131.78	22.5
3132.61	24
3133.43	24.5
3134.25	23.5
3135.07	24
3135.9	24
3136.72	22
3137.54	24
3138.36	22
3139.18	22.5
3140.01	27
3140.83	26
3141.65	24.5
3142.47	24
3143.29	26
3144.11	24
3144.93	23
3145.75	26
3146.58	21.5
3147.4	22.5
3148.22	23
3149.04	24.5
3149.86	22
3150.68	19
3151.5	22.5
3152.32	22
3153.14	27.5
3153.96	22
3154.78	19.5
3155.6	20
3156.42	22
3157.23	20
3158.05	22
3158.87	23
3159.69	25
3160.51	24.5
3161.33	21.5
3162.15	20.5
3162.97	23
3163.79	25
3164.6	19
3165.42	25.5
3166.24	25
3167.06	21
3167.88	26
3168.69	23
3169.51	23.5
3170.33	24.5
3171.15	26.5
3171.96	22.5
3172.78	23.5
3173.6	21.5
3174.41	23
3175.23	22.5
3176.05	23
3176.86	24
3177.68	24
3178.5	23.5
3179.31	21
3180.13	21.5
3180.95	23
3181.76	23
3182.58	22
3183.39	20.5
3184.21	24.5
3185.02	23
3185.84	22
3186.65	22
3187.47	22
3188.28	18.5
3189.1	25.5
3189.91	22
3190.73	24.5
3191.54	24
3192.36	20
3193.17	23.5
3193.99	20
3194.8	23
3195.61	22.5
3196.43	21
3197.24	27.5
3198.05	21
3198.87	20.5
3199.68	22
3200.49	20
3201.31	21.5
3202.12	24
3202.93	21
3203.75	17.5
3204.56	26.5
3205.37	28
3206.18	24
3207	20
3207.81	21
3208.62	24
3209.43	22.5
3210.24	21.5
3211.06	21
3211.87	23
3212.68	22
3213.49	23
3214.3	25
3215.11	23
3215.92	23.5
3216.74	20.5
3217.55	22.5
3218.36	21
3219.17	22.5
3219.98	21.5
3220.79	22
3221.6	25
3222.41	22
3223.22	25.5
3224.03	24
3224.84	20.5
3225.65	27
3226.46	24
3227.27	27
3228.08	20.5
3228.89	25
3229.7	24
3230.5	26.5
3231.31	22
3232.12	23
3232.93	25
3233.74	29
3234.55	23
3235.36	26.5
3236.16	23.5
3236.97	25
3237.78	23.5
3238.59	24
3239.4	25
3240.2	22.5
3241.01	21
3241.82	22
3242.63	23
3243.43	21
3244.24	28
3245.05	23
3245.86	26
3246.66	25.5
3247.47	22
3248.28	21.5
3249.08	22
3249.89	22.5
3250.69	23
3251.5	24.5
3252.31	25
3253.11	27
3253.92	24
3254.72	23
3255.53	24
3256.34	22
3257.14	25
3257.95	24.5
3258.75	22
3259.56	22
3260.36	24
3261.17	21
3261.97	24
3262.77	26
3263.58	21
3264.38	24
3265.19	25
3265.99	26
3266.8	24
3267.6	21
3268.4	24.5
3269.21	26
3270.01	23
3270.81	22.5
3271.62	19
3272.42	22.5
3273.22	20.5
3274.03	22
3274.83	20
3275.63	24.5
3276.43	23
3277.24	22.5
3278.04	24
3278.84	22.5
3279.64	22.5
3280.45	22.5
3281.25	22.5
3282.05	25
3282.85	26.5
3283.65	24.5
3284.46	22
3285.26	20
3286.06	22.5
3286.86	26.5
3287.66	24.5
3288.46	24.5
3289.26	23
3290.06	26.5
3290.86	21.5
3291.66	23
3292.46	24.5
3293.26	26
3294.06	25
3294.86	26.5
3295.66	26.5
3296.46	25
3297.26	24
3298.06	20.5
3298.86	27
3299.66	23.5
3300.46	25.5
3301.26	22.5
3302.06	25
3302.86	26.5
3303.66	21.5
3304.46	21
3305.26	24
3306.05	23.5
3306.85	23.5
3307.65	21
3308.45	26
3309.25	26
3310.04	20.5
3310.84	19.5
3311.64	21
3312.44	27
3313.24	21
3314.03	23
3314.83	23.5
3315.63	19.5
3316.42	23
3317.22	23.5
3318.02	25.5
3318.82	23.5
3319.61	26
3320.41	22
3321.2	23.5
3322	24
3322.8	25.5
3323.59	25
3324.39	22
3325.19	23.5
3325.98	21.5
3326.78	25.5
3327.57	19
3328.37	22
3329.16	23.5
3329.96	25
3330.75	23
3331.55	21
3332.34	22
3333.14	20.5
3333.93	24.5
3334.73	21
3335.52	21.5
3336.32	21
3337.11	23
3337.9	23.5
3338.7	22.5
3339.49	21
3340.29	24.5
3341.08	24.5
3341.87	26.5
3342.67	24
3343.46	21
3344.25	18.5
3345.05	21.5
3345.84	20.5
3346.63	23
3347.42	23.5
3348.22	25.5
3349.01	25
3349.8	22.5
3350.59	21.5
3351.39	24.5
3352.18	26
3352.97	26.5
3353.76	27
3354.55	26.5
3355.35	24
3356.14	25
3356.93	25
3357.72	24
3358.51	23
3359.3	21.5
3360.09	18.5
3360.88	26
3361.67	22
3362.47	23
3363.26	27
3364.05	26.5
3364.84	27
3365.63	23
3366.42	24.5
3367.21	22.5
3368	22
3368.79	26.5
3369.58	23.5
3370.37	25.5
3371.16	21
3371.95	27
3372.73	25
3373.52	23
3374.31	24
3375.1	18.5
3375.89	25.5
3376.68	23
3377.47	21.5
3378.26	24
3379.04	30.5
3379.83	24.5
3380.62	24
3381.41	22.5
3382.2	26.5
3382.98	19.5
3383.77	24
3384.56	24.5
3385.35	18.5
3386.14	25.5
3386.92	23
3387.71	25.5
3388.5	21
3389.28	25
3390.07	25.5
3390.86	22
3391.64	21
3392.43	25.5
3393.22	27
3394	25.5
3394.79	26.5
3395.58	24.5
3396.36	23
3397.15	22.5
3397.93	26
3398.72	23
3399.5	21.5
3400.29	23.5
3401.07	24.5
3401.86	25
3402.65	25
3403.43	21.5
3404.22	23.5
3405	19.5
3405.79	24
3406.57	23
3407.35	22
3408.14	27.5
3408.92	27
3409.71	25
3410.49	25.5
3411.27	24.5
3412.06	27
3412.84	24.5
3413.63	23
3414.41	27
3415.19	25.5
3415.98	22.5
3416.76	22
3417.54	24
3418.32	28.5
3419.11	22
3419.89	22
3420.67	19.5
3421.46	25
3422.24	22
3423.02	25.5
3423.8	25
3424.58	27
3425.37	24
3426.15	24
3426.93	22.5
3427.71	22.5
3428.49	23
3429.27	24.5
3430.06	27
3430.84	24
3431.62	26.5
3432.4	25
3433.18	25
3433.96	25
3434.74	27
3435.52	23
3436.3	21
3437.08	26
3437.86	21
3438.64	21
3439.42	24
3440.2	27.5
3440.98	25
3441.76	24
3442.54	22.5
3443.32	24.5
3444.1	21
3444.88	26
3445.66	28
3446.44	25
3447.22	25.5
3448	24.5
3448.78	22.5
3449.55	26.5
3450.33	24.5
3451.11	23.5
3451.89	25.5
3452.67	24
3453.45	25.5
3454.22	22
3455	23.5
3455.78	22
3456.56	24
3457.33	24
3458.11	22
3458.89	21.5
3459.67	25.5
3460.44	22
3461.22	21
3462	27
3462.77	22.5
3463.55	22.5
3464.33	26.5
3465.1	28
3465.88	24
3466.66	22.5
3467.43	24
3468.21	23.5
3468.99	24.5
3469.76	21.5
3470.54	27.5
3471.31	22.5
3472.09	23.5
3472.86	22
3473.64	26.5
3474.41	22.5
3475.19	23.5
3475.96	23.5
3476.74	26.5
3477.51	28.5
3478.29	22
3479.06	28
3479.84	22
3480.61	22
3481.39	24.5
3482.16	18
3482.93	25.5
3483.71	24
3484.48	24.5
3485.26	27
3486.03	25
3486.8	21
3487.58	20
3488.35	24
3489.12	26.5
3489.9	22
3490.67	22
3491.44	27
3492.21	24.5
3492.99	24
3493.76	23.5
3494.53	24.5
3495.3	26
3496.08	24.5
3496.85	21
3497.62	25.5
3498.39	24
3499.16	23
3499.94	20.5
