#Acq. time (s)=	5
#Accumulations=	5
#Range (cm-¹)=	100...3500
#Windows=	4
#Autofocus=	Off
#AutoExposure=	Off
#Spike filter=	Multiple accum.
#Delay time (s)=	0
#Binning=	1
#Readout mode=	Signal
#DeNoise=	Off
#ICS correction=	Off
#Dark correction=	Off
#Inst. Process=	Off
#Instrument=	LabRAM HR Evol
#Detector=	Syncerity OE
#Objective=	x100_VIS
#Grating=	600 (500nm)
#ND Filter=	25%
#Laser=	633nm_Edge
#Hole=	100.021
#Range=	Visible
#Project=	verificaciones
#Sample=	a3
#Site=	plain
#Title=	bolusa3plain
#Remark=	
#Date=	12.01.2026 15:48
#Acquired=	12.01.2026 15:48:47
100.666	26
101.95	33.5
103.233	32
104.516	29.5
105.799	26
107.083	30
108.365	26
109.648	31
110.93	27
112.212	30
113.493	28.5
114.775	27.5
116.056	27
117.337	26
118.618	30
119.898	29.5
121.178	31
122.459	31
123.739	29
125.018	27
126.298	33
127.577	34
128.856	32
130.135	28.5
131.414	26.5
132.692	32
133.971	32.5
135.249	33.5
136.525	33
137.803	33
139.08	36
140.357	33
141.634	32.5
142.911	33
144.188	38
145.464	39
146.74	34
148.015	35
149.291	35.5
150.566	36
151.842	41
153.117	40.5
154.392	40.5
155.665	37
156.939	32.5
158.214	36
159.488	41.5
160.76	38
162.034	36
163.307	37.5
164.581	39
165.854	39
167.125	37.5
168.398	36
169.67	39
170.941	35
172.213	33
173.485	35
174.756	34
176.026	39
177.298	39.5
178.569	38
179.838	39
181.109	34.5
182.379	34
183.648	38
184.918	41.5
186.187	35.5
187.455	39
188.725	39
189.992	35.5
191.261	36.5
192.53	37
193.797	36
195.065	36.5
196.332	36
197.6	34.5
198.866	37
200.134	39
201.401	34
202.667	36.5
203.933	37
205.199	37
206.465	32
207.73	37
208.996	30.5
210.26	32.5
211.526	33.5
212.79	33.5
214.055	34
215.319	33.5
216.582	30
217.847	34
219.11	33.5
220.374	31
221.636	34.5
222.9	35
224.162	30
225.424	34
226.687	30.5
227.949	27
229.212	30
230.473	30
231.734	32
232.996	31
234.256	32.5
235.517	31.5
236.778	26.5
238.038	31.5
239.298	29.5
240.559	28
241.818	30.5
243.077	28
244.337	28
245.596	30
246.854	29.5
248.113	34.5
249.372	27.5
250.63	27
251.887	26
253.145	27.5
254.404	28
255.661	30
256.917	25.5
258.174	29
259.432	28
260.688	28
261.944	26.5
263.2	27.5
264.456	24.5
265.711	27.5
266.968	31.5
268.223	26.5
269.477	28.5
270.732	27
271.986	28
273.24	27
274.494	27.5
275.748	22
277.003	26.5
278.257	25.5
279.51	30.5
280.763	29
282.015	24
283.268	31
284.52	30
285.773	28
287.024	26
288.276	28.5
289.528	23.5
290.779	27
292.03	30
293.281	25
294.532	26.5
295.782	26.5
297.033	23.5
298.283	27
299.533	26.5
300.783	25
302.032	31
303.281	30.5
304.531	29
305.78	27.5
307.028	30
308.275	28.5
309.524	25.5
310.772	30.5
312.02	24
313.267	31
314.515	25
315.762	23
317.009	30
318.255	26.5
319.501	26
320.748	26.5
321.994	26
323.24	29.5
324.486	28
325.731	26.5
326.976	28
328.221	25
329.466	26.5
330.71	26
331.955	27.5
333.199	28.5
334.443	24
335.686	28
336.93	29
338.174	28
339.417	23
340.659	26
341.902	31
343.145	25
344.386	26
345.629	29
346.871	22.5
348.112	27
349.354	27.5
350.595	22
351.836	26
353.077	29.5
354.318	31
355.557	29.5
356.798	29
358.037	29
359.277	25
360.518	31.5
361.756	29
362.996	26
364.234	30
365.473	29
366.711	28
367.95	29.5
369.187	28.5
370.426	28
371.662	27.5
372.901	25
374.137	27
375.375	24.5
376.611	27.5
377.848	24.5
379.084	28.5
380.321	29
381.556	30.5
382.793	26.5
384.027	28
385.264	26.5
386.498	29.5
387.732	29
388.968	24.5
390.202	31
391.437	25
392.671	31
393.904	28.5
395.138	26
396.371	30.5
397.604	28
398.838	27
400.07	27
401.302	31
402.536	30
403.768	28.5
404.999	25.5
406.232	27
407.463	25.5
408.694	28
409.925	25
411.157	25
412.387	26
413.617	30
414.847	29
416.078	25.5
417.308	26.5
418.537	25.5
419.767	25.5
420.997	30.5
422.226	29.5
423.454	33
424.683	24
425.911	27.5
427.139	28.5
428.368	25.5
429.596	25.5
430.823	28
432.05	25
433.277	23.5
434.504	25
435.731	28
436.957	30.5
438.185	27
439.411	25
440.637	27
441.862	29.5
443.088	26.5
444.313	30
445.538	28
446.763	30
447.988	26.5
449.212	28
450.436	26
451.661	27
452.884	27.5
454.108	31
455.332	29.5
456.555	28
457.778	30
459.001	30
460.224	29
461.446	26
462.668	30
463.891	30.5
465.111	28.5
466.333	27
467.554	28.5
468.776	30.5
469.997	32
471.218	34
472.439	32.5
473.659	34
474.878	37.5
476.098	38
477.318	42.5
478.538	40
479.758	43.5
480.977	53
482.195	47
483.414	43.5
484.633	54
485.851	50.5
487.07	55
488.287	56
489.505	54
490.723	53
491.94	50.5
493.156	46
494.374	49
495.591	49
496.806	47
498.023	44
499.239	46.5
500.456	46
501.67	38
502.886	34.5
504.102	40.5
505.316	37
506.531	33
507.745	37.5
508.96	38
510.175	34
511.388	34
512.602	33
513.815	34
515.029	31.5
516.243	29
517.455	31
518.669	31.5
519.88	30.5
521.093	32
522.305	32
523.518	30
524.729	31
525.941	27
527.151	26
528.363	27.5
529.574	27
530.785	25
531.995	33
533.206	30
534.416	28.5
535.626	28.5
536.835	26.5
538.046	24
539.254	27.5
540.463	30.5
541.673	27
542.881	28.5
544.09	27
545.298	26
546.506	31
547.714	25
548.922	27
550.13	27.5
551.337	30
552.544	28
553.751	30.5
554.958	27
556.164	26.5
557.37	26
558.577	27.5
559.782	27
560.987	25
562.194	28
563.399	25
564.604	27
565.808	29.5
567.014	27.5
568.218	30
569.422	27.5
570.626	26
571.829	25.5
573.034	28
574.237	23
575.44	31
576.643	26
577.846	24
579.048	25.5
580.252	29
581.454	25
582.656	26
583.857	27.5
585.059	26
586.26	27.5
587.461	26
588.662	23
589.863	26.5
591.065	25.5
592.265	24
593.465	21
594.665	26
595.865	26.5
597.065	30
598.264	23
599.463	29
600.662	26
601.861	27.5
603.06	31.5
604.258	28.5
605.457	27
606.655	25.5
607.853	26.5
609.05	27
610.248	23.5
611.444	25.5
612.641	28
613.838	26
615.034	31.5
616.231	26.5
617.427	33
618.624	26
619.82	30.5
621.015	26
622.21	29
623.405	31.5
624.6	25
625.795	29.5
626.99	28
628.185	31.5
629.378	30
630.572	33.5
631.766	26.5
632.96	26
634.154	26.5
635.346	26.5
636.54	29.5
637.733	26
638.926	25
640.117	29
641.31	26
642.502	30
643.693	26.5
644.885	32
646.077	27.5
647.267	29
648.459	29.5
649.65	27
650.84	23
652.031	27
653.222	30.5
654.411	26
655.601	31
656.791	28
657.98	30.5
659.17	27.5
660.358	26
661.547	27.5
662.737	26
663.924	24.5
665.113	29
666.3	29.5
667.489	29.5
668.676	30.5
669.864	31.5
671.05	25
672.238	28.5
673.424	30
674.612	31.5
675.798	31.5
676.985	29.5
678.17	21
679.357	35.5
680.542	34
681.728	31.5
682.913	33.5
684.097	32.5
685.283	33.5
686.467	37
687.652	35
688.836	28.5
690.02	33.5
691.205	33
692.388	30
693.571	32.5
694.755	33
695.938	33
697.12	35
698.304	40.5
699.486	36.5
700.668	34.5
701.851	40.5
703.032	36
704.214	40.5
705.395	40
706.577	43
707.758	42
708.939	47
710.119	44.5
711.301	49.5
712.481	39.5
713.661	39.5
714.84	36.5
716.02	30.5
717.201	31
718.38	27
719.559	27
720.737	33
721.916	29.5
723.094	27
724.274	27
725.452	30.5
726.63	27.5
727.808	31.5
728.985	30.5
730.162	26
731.339	29.5
732.516	25.5
733.693	27
734.87	29
736.046	27
737.222	24
738.398	26
739.574	31
740.75	24
741.925	25
743.1	28.5
744.276	26.5
745.45	28.5
746.625	26.5
747.8	24.5
748.974	26
750.148	29
751.322	28
752.496	26
753.67	28.5
754.843	29.5
756.016	23
757.189	29
758.362	24.5
759.534	29.5
760.706	27.5
761.878	28
763.051	29
764.223	30
765.394	25
766.565	28.5
767.736	23
768.907	29
770.078	29
771.249	25.5
772.419	29
773.589	24
774.759	27.5
775.93	30
777.098	27.5
778.268	30
779.438	30
780.607	30.5
781.775	32
782.944	28.5
784.113	31.5
785.28	28
786.449	30
787.617	31
788.784	32
789.952	30.5
791.12	29
792.286	25.5
793.453	27
794.62	30.5
795.786	28.5
796.953	28.5
798.118	29
799.285	26
800.45	31
801.616	30.5
802.782	28
803.946	30.5
805.112	29.5
806.276	25.5
807.441	25
808.605	27.5
809.77	28.5
810.933	26.5
812.098	30
813.261	27.5
814.425	28
815.588	26
816.75	30
817.914	31
819.076	25.5
820.239	27.5
821.401	28
822.564	27
823.725	23
824.886	28
826.048	25
827.209	26.5
828.37	27.5
829.532	29
830.692	29.5
831.852	26.5
833.013	29
834.173	29
835.333	28.5
836.493	32
837.653	25.5
838.812	25
839.972	28
841.13	26
842.289	31.5
843.447	24.5
844.607	26
845.765	28.5
846.922	30
848.08	28.5
849.237	27
850.396	25
851.553	27.5
852.71	22
853.867	26
855.023	30
856.179	25
857.337	26
858.493	25.5
859.649	29
860.804	27.5
861.96	26
863.115	32
864.27	28.5
865.425	27.5
866.58	28
867.734	27
868.888	29
870.043	29
871.197	30.5
872.35	24
873.504	26
874.658	26
875.811	24
876.964	25
878.117	27.5
879.27	30
880.422	27
881.575	30.5
882.727	22.5
883.879	23.5
885.031	26.5
886.182	20
887.334	23
888.485	29.5
889.636	28
890.787	26.5
891.937	22
893.088	29
894.238	29
895.388	29
896.538	24.5
897.688	25
898.837	23
899.986	28.5
901.136	26.5
902.285	24
903.434	29
904.581	28.5
905.73	26
906.878	28.5
908.027	25
909.174	29.5
910.321	27
911.469	25.5
912.617	26.5
913.763	25
914.91	27.5
916.057	26.5
917.203	24
918.35	23
919.496	25.5
920.641	28
921.787	24.5
922.933	27.5
924.078	26
925.224	29.5
926.368	28
927.513	22.5
928.658	24.5
929.802	29.5
930.946	28
932.09	23.5
933.234	21
934.377	25
935.521	25.5
936.664	25.5
937.807	26.5
938.95	28
940.093	27
941.235	24
942.378	25
943.519	23
944.662	22
945.803	24.5
946.946	25
948.086	28.5
949.227	29.5
950.369	27
951.509	23.5
952.651	23
953.79	25
954.93	26.5
956.071	27
957.211	27
958.35	24
959.49	27
960.629	23
961.768	26
962.908	26
964.046	26
965.184	25
966.323	25
967.461	26.5
968.599	25
969.736	26.5
970.875	25
972.012	23
973.149	24
974.286	24.5
975.424	27.5
976.56	28
977.697	27
978.833	20.5
979.969	23.5
981.104	22.5
982.241	27
983.377	26
984.512	23
985.647	28
986.782	24.5
987.916	24.5
989.051	25
990.185	28
991.321	28.5
992.455	25.5
993.589	29.5
994.722	25
995.856	26
996.989	23
998.122	25.5
999.255	27
1000.39	28
1001.52	27.5
1002.65	27.5
1003.79	26.5
1004.92	23
1006.05	24.5
1007.18	26
1008.31	28
1009.44	24
1010.57	28
1011.7	25.5
1012.84	22.5
1013.97	21
1015.1	27
1016.23	26
1017.36	23.5
1018.49	26
1019.62	24
1020.75	27
1021.88	23
1023	27
1024.13	23.5
1025.26	24
1026.39	25
1027.52	24.5
1028.65	24
1029.78	27.5
1030.9	24
1032.03	25
1033.16	25
1034.29	23
1035.41	26
1036.54	22.5
1037.67	27.5
1038.79	21.5
1039.92	28.5
1041.04	21.5
1042.17	24.5
1043.3	21
1044.42	24.5
1045.55	26.5
1046.67	23
1047.8	27
1048.92	30
1050.05	24.5
1051.17	23
1052.3	25
1053.42	21
1054.54	27
1055.67	23
1056.79	28
1057.91	24
1059.04	23
1060.16	24
1061.28	25
1062.41	26
1063.53	22.5
1064.65	22
1065.77	25
1066.9	29
1068.02	26.5
1069.14	27.5
1070.26	23.5
1071.38	25.5
1072.5	26.5
1073.62	27
1074.74	25
1075.86	21
1076.98	28.5
1078.1	21.5
1079.22	25.5
1080.34	24
1081.46	25.5
1082.58	22.5
1083.7	26.5
1084.82	24.5
1085.94	26.5
1087.06	25.5
1088.18	24.5
1089.29	24
1090.41	26
1091.53	21.5
1092.65	24.5
1093.77	22
1094.88	26.5
1096	23.5
1097.12	22.5
1098.23	25.5
1099.35	25
1100.47	25
1101.58	25
1102.7	25
1103.82	20
1104.93	27
1106.05	23.5
1107.16	23
1108.28	28
1109.39	22.5
1110.51	27
1111.62	23.5
1112.74	27
1113.85	23
1114.96	25
1116.08	28
1117.19	26
1118.31	24.5
1119.42	23
1120.53	21
1121.65	26
1122.76	24.5
1123.87	26.5
1124.98	24.5
1126.1	21.5
1127.21	23.5
1128.32	23
1129.43	27
1130.54	20
1131.65	26
1132.76	19.5
1133.88	27.5
1134.99	21.5
1136.1	26
1137.21	25.5
1138.32	24.5
1139.43	26
1140.54	19
1141.65	22.5
1142.76	26.5
1143.87	26
1144.98	25
1146.08	23.5
1147.19	26.5
1148.3	23.5
1149.41	23
1150.52	21.5
1151.63	21
1152.73	24.5
1153.84	23
1154.95	27
1156.06	26.5
1157.17	24.5
1158.27	25.5
1159.38	27.5
1160.49	27
1161.59	24.5
1162.7	21
1163.8	26
1164.91	31
1166.02	23
1167.12	26
1168.23	27.5
1169.33	22
1170.44	26.5
1171.54	19.5
1172.65	23
1173.75	23.5
1174.86	25.5
1175.96	23
1177.06	22
1178.17	24
1179.27	23.5
1180.37	23.5
1181.48	23
1182.58	23
1183.68	26
1184.79	26
1185.89	23
1186.99	22.5
1188.09	21
1189.2	24
1190.3	26.5
1191.4	22.5
1192.5	22.5
1193.6	24
1194.7	22.9966
1195.8	23.971
1196.9	26.932
1198.01	24.9869
1199.11	26.3594
1200.21	23.5242
1201.31	21.0598
1202.41	23.962
1203.5	20.0964
1204.6	24.3223
1205.7	22.7161
1206.8	23.6051
1207.9	23.4484
1209	23.0845
1210.1	24.0605
1211.2	22.6646
1212.3	21.0628
1213.39	22.2863
1214.49	23.6265
1215.59	22.9071
1216.69	24.0915
1217.78	23.2194
1218.88	27.7888
1219.98	23.6837
1221.08	20.6117
1222.17	24.9029
1223.27	22.8644
1224.37	21.1464
1225.46	23.1153
1226.56	26.6916
1227.65	21.5383
1228.75	23.592
1229.84	25.255
1230.94	22.2229
1232.03	26.2625
1233.13	24.6852
1234.22	25.8423
1235.32	22.9617
1236.41	24.7198
1237.51	26.7259
1238.6	25.8812
1239.69	24.4808
1240.79	21.1796
1241.88	24.6013
1242.97	23.2228
1244.07	23.9666
1245.16	22.5485
1246.25	22.0978
1247.35	22.0211
1248.44	25.7401
1249.53	26.9677
1250.62	23.3442
1251.71	22.4925
1252.81	25.6589
1253.9	24.3006
1254.99	26.21
1256.08	28.0467
1257.17	24.929
1258.26	25.6005
1259.35	26.2004
1260.44	24.9288
1261.53	23.533
1262.62	28.0771
1263.71	25.2136
1264.8	25.871
1265.89	25.0223
1266.98	25.5604
1268.07	24.282
1269.16	25.4253
1270.25	22.1775
1271.34	22.7527
1272.43	25.565
1273.52	22.6977
1274.6	24.4364
1275.69	24.8076
1276.78	24.2475
1277.87	25.7426
1278.95	25.2484
1280.04	25.4354
1281.13	25.4292
1282.22	25.8132
1283.3	23.5527
1284.39	25.8189
1285.48	23.378
1286.56	24.9372
1287.65	26.9814
1288.73	25.6735
1289.82	21.0125
1290.91	25.0251
1291.99	24.6591
1293.08	25.3954
1294.16	23.5637
1295.24	21.9546
1296.33	24.2899
1297.41	25.7296
1298.5	25.1987
1299.58	24.1797
1300.67	22.8746
1301.75	23.9858
1302.83	21.7304
1303.92	21.9812
1305	22.551
1306.08	23.1861
1306.4	23.5
1307.49	24.5
1308.58	23
1309.66	27.5
1310.75	24.5
1311.84	25.5
1312.93	22
1314.01	27.5
1315.1	22
1316.19	25.5
1317.27	21
1318.36	26
1319.45	27
1320.53	21.5
1321.62	25.5
1322.71	20
1323.79	23.5
1324.88	24.5
1325.96	23
1327.05	21
1328.13	24.5
1329.22	22
1330.3	24
1331.39	24
1332.47	21.5
1333.55	25.5
1334.64	25
1335.72	23
1336.81	24
1337.89	22
1338.97	28
1340.06	24
1341.14	21.5
1342.22	25.5
1343.3	24.5
1344.39	23.5
1345.47	26
1346.55	22
1347.63	22
1348.71	24
1349.8	27.5
1350.88	25
1351.96	24
1353.04	23
1354.12	20.5
1355.2	24.5
1356.28	22.5
1357.36	26
1358.44	24.5
1359.52	27.5
1360.6	25
1361.68	23
1362.76	23.5
1363.84	24
1364.92	24
1366	26.5
1367.08	27.5
1368.16	27.5
1369.23	28.5
1370.31	26
1371.39	26.5
1372.47	26
1373.55	23
1374.62	25
1375.7	23
1376.78	26
1377.86	26
1378.93	22.5
1380.01	23
1381.09	24.5
1382.16	29.5
1383.24	25.5
1384.32	25
1385.39	27
1386.47	24
1387.54	26
1388.62	28.5
1389.69	25
1390.77	24
1391.84	29
1392.92	24
1393.99	25
1395.07	26
1396.14	27.5
1397.21	26
1398.29	26.5
1399.36	25
1400.44	25.5
1401.51	27.5
1402.58	29
1403.66	30.5
1404.73	29.5
1405.8	29.5
1406.87	29
1407.95	28
1409.02	27
1410.09	30.5
1411.16	29.5
1412.23	32
1413.3	27
1414.38	34.5
1415.45	32
1416.52	25
1417.59	30.5
1418.66	30
1419.73	25.5
1420.8	30.5
1421.87	22
1422.94	25.5
1424.01	25
1425.08	23.5
1426.15	26.5
1427.22	27
1428.29	26.5
1429.36	25
1430.43	27.5
1431.49	21.5
1432.56	30
1433.63	28
1434.7	31
1435.77	24.5
1436.83	26
1437.9	27
1438.97	29.5
1440.04	28
1441.1	29
1442.17	25.5
1443.24	25
1444.3	22.5
1445.37	25
1446.44	27.5
1447.5	25
1448.57	22.5
1449.63	25
1450.7	21.5
1451.77	25
1452.83	27
1453.9	20
1454.96	24
1456.03	28
1457.09	22.5
1458.15	26.5
1459.22	24
1460.28	23
1461.35	24
1462.41	23
1463.47	28.5
1464.54	26.5
1465.6	26.5
1466.66	24
1467.73	26
1468.79	25
1469.85	29
1470.91	27.5
1471.98	24
1473.04	26
1474.1	24
1475.16	27.5
1476.22	28
1477.28	26
1478.35	25
1479.41	25
1480.47	28.5
1481.53	27
1482.59	26.5
1483.65	21
1484.71	25.5
1485.77	25
1486.83	27
1487.89	28
1488.95	27
1490.01	24.5
1491.07	22.5
1492.13	23.5
1493.18	24.5
1494.24	24
1495.3	26
1496.36	24
1497.42	25
1498.48	27
1499.53	26.5
1500.59	25.5
1501.65	26
1502.71	25.5
1503.76	24
1504.82	24.5
1505.88	25.5
1506.93	25
1507.99	21.5
1509.05	26.5
1510.1	25
1511.16	29
1512.21	26
1513.27	29.5
1514.33	26
1515.38	24
1516.44	25
1517.49	28.5
1518.55	23
1519.6	25
1520.66	26
1521.71	26
1522.76	27
1523.82	25.5
1524.87	25
1525.93	23
1526.98	25
1528.03	25.5
1529.08	26
1530.14	28.5
1531.19	24
1532.24	28.5
1533.3	27.5
1534.35	27
1535.4	22
1536.45	29
1537.5	25.5
1538.56	29
1539.61	25.5
1540.66	27.5
1541.71	28
1542.76	27
1543.81	22
1544.86	28
1545.91	23.5
1546.96	23.5
1548.01	26
1549.06	23
1550.11	26.5
1551.16	22.5
1552.21	22.5
1553.26	28
1554.31	26
1555.36	21
1556.41	25
1557.46	25
1558.51	22.5
1559.56	23.5
1560.6	22.5
1561.65	28
1562.7	24.5
1563.75	24
1564.79	26.5
1565.84	23
1566.89	30.5
1567.94	23.5
1568.98	22.5
1570.03	23.5
1571.08	26.5
1572.12	24
1573.17	26
1574.22	26
1575.26	23
1576.31	24
1577.35	25.5
1578.4	24
1579.44	26.5
1580.49	27
1581.53	27.5
1582.58	20.5
1583.62	29
1584.67	24.5
1585.71	21
1586.76	24.5
1587.8	25
1588.84	22
1589.89	25
1590.93	20
1591.97	21
1593.02	28
1594.06	25
1595.1	29
1596.14	25.5
1597.19	23.5
1598.23	21
1599.27	26
1600.31	26
1601.36	21
1602.4	25
1603.44	25
1604.48	24
1605.52	26
1606.56	23.5
1607.6	27
1608.64	26
1609.68	19
1610.72	22
1611.76	20.5
1612.81	26
1613.84	24
1614.88	25
1615.92	23.5
1616.96	27
1618	25
1619.04	24.5
1620.08	23.5
1621.12	27.5
1622.16	22.5
1623.2	21.5
1624.23	28.5
1625.27	27
1626.31	20.5
1627.35	25
1628.39	26
1629.42	19
1630.46	22.5
1631.5	25
1632.53	25
1633.57	22.5
1634.61	23
1635.64	21
1636.68	24.5
1637.72	23.5
1638.75	28
1639.79	25.5
1640.82	23
1641.86	27
1642.89	23
1643.93	25.5
1644.96	26.5
1646	25
1647.03	21
1648.07	22
1649.1	28
1650.14	24
1651.17	24.5
1652.21	26
1653.24	27.5
1654.27	23.5
1655.31	21
1656.34	28
1657.37	25
1658.41	25
1659.44	29
1660.47	27
1661.5	25
1662.53	26.5
1663.57	21.5
1664.6	28
1665.63	25
1666.66	25.5
1667.69	27
1668.72	27
1669.76	28
1670.79	26.5
1671.82	26.5
1672.85	20
1673.88	28
1674.91	28
1675.94	21
1676.97	23.5
1678	23.5
1679.03	16
1680.06	23
1681.09	24
1682.12	27
1683.15	29
1684.17	27.5
1685.2	25
1686.23	27
1687.26	23
1688.29	26.5
1689.32	21
1690.34	23.5
1691.37	27.5
1692.4	24
1693.43	28
1694.45	24
1695.48	23
1696.51	24.5
1697.54	25
1698.56	26
1699.59	27.5
1700.61	22
1701.64	23.5
1702.67	24
1703.69	26
1704.72	29
1705.74	24
1706.77	23
1707.79	24.5
1708.82	25.5
1709.84	22
1710.87	24.5
1711.89	22
1712.92	25.5
1713.94	26
1714.97	23
1715.99	27
1717.01	24
1718.04	25
1719.06	24
1720.08	24
1721.11	26
1722.13	25
1723.15	24.5
1724.18	25.5
1725.2	24.5
1726.22	27.5
1727.24	27
1728.26	27
1729.29	27
1730.31	27.5
1731.33	25
1732.35	25.5
1733.37	24.5
1734.39	26
1735.41	24
1736.43	26
1737.45	28.5
1738.47	27
1739.5	27.5
1740.52	27
1741.53	28
1742.55	23.5
1743.57	25.5
1744.59	23.5
1745.61	22.5
1746.63	23
1747.65	23
1748.67	23
1749.69	27
1750.71	25
1751.72	28
1752.74	27
1753.76	29
1754.78	25
1755.8	23.5
1756.81	23
1757.83	23
1758.85	22.5
1759.87	24
1760.88	23
1761.9	27
1762.92	21
1763.93	22
1764.95	21
1765.96	22.5
1766.98	27
1768	20.5
1769.01	24.5
1770.03	29
1771.04	29
1772.06	26.5
1773.07	23
1774.09	23
1775.1	22
1776.12	24
1777.13	26.5
1778.15	24
1779.16	20.5
1780.17	25.5
1781.19	25
1782.2	21
1783.21	24
1784.23	25.5
1785.24	23.5
1786.25	20
1787.27	26.5
1788.28	22.5
1789.29	21.5
1790.3	29.5
1791.32	23
1792.33	27
1793.34	29
1794.35	21
1795.36	27
1796.38	25.5
1797.39	24.5
1798.4	26
1799.41	24.5
1800.42	23.5
1801.43	27.5
1802.44	26.5
1803.45	23.5
1804.46	22.5
1805.47	23.5
1806.48	21
1807.49	25
1808.5	22
1809.51	25.5
1810.52	28
1811.53	22
1812.53	25
1813.54	21.5
1814.55	25
1815.56	28.5
1816.57	23
1817.58	25
1818.59	23
1819.59	25.5
1820.6	23
1821.61	22.5
1822.62	21
1823.62	22
1824.63	25.5
1825.64	26
1826.64	21
1827.65	25.5
1828.66	23.5
1829.66	24
1830.67	22.5
1831.67	27
1832.68	26
1833.69	21
1834.69	26
1835.7	27
1836.7	27
1837.71	24
1838.71	26.5
1839.72	25
1840.72	21
1841.72	23.5
1842.73	24.5
1843.73	26.5
1844.74	24.5
1845.74	22.5
1846.74	24
1847.75	22
1848.75	24.5
1849.75	24
1850.76	25.5
1851.76	24
1852.76	24
1853.76	25.5
1854.77	26
1855.77	22
1856.77	26
1857.77	25
1858.78	24.5
1859.78	21.5
1860.78	24.5
1861.78	25
1862.78	23
1863.78	25
1864.78	23
1865.78	24
1866.78	23.5
1867.78	26.5
1868.78	21
1869.78	27.5
1870.78	26
1871.78	26.5
1872.78	22
1873.78	23
1874.78	24
1875.78	21.5
1876.78	27
1877.78	23
1878.78	25.5
1879.78	21.5
1880.77	24.5
1881.77	19
1882.77	24.5
1883.77	24.5
1884.77	26
1885.76	26.5
1886.76	22.5
1887.76	24
1888.75	23
1889.75	20
1890.75	23
1891.74	23
1892.74	24
1893.74	25
1894.73	29
1895.73	24
1896.73	26
1897.72	25
1898.72	23
1899.71	22.5
1900.71	23.5
1901.7	24
1902.7	22.5
1903.69	23.5
1904.69	22
1905.68	23.5
1906.68	24
1907.67	26
1908.66	22
1909.66	21.5
1910.65	24
1911.64	23
1912.64	20.5
1913.63	25
1914.62	26
1915.62	23
1916.61	27
1917.6	25.5
1918.6	27
1919.59	22
1920.58	23
1921.57	27
1922.56	23
1923.55	23.5
1924.55	25
1925.54	24
1926.53	25
1927.52	29.5
1928.51	25.5
1929.5	24
1930.49	25
1931.48	22.5
1932.47	22
1933.46	24.5
1934.45	27.5
1935.44	26
1936.43	25.5
1937.42	25
1938.41	26.5
1939.4	26.5
1940.39	24.5
1941.38	25.5
1942.37	23
1943.36	26.5
1944.35	24.5
1945.33	23.5
1946.32	26
1947.31	25
1948.3	25.5
1949.29	26
1950.27	24
1951.26	24.5
1952.25	30.5
1953.24	25.5
1954.22	23
1955.21	26
1956.2	22.5
1957.18	22.5
1958.17	26
1959.16	26.5
1960.14	23
1961.13	27
1962.11	24.5
1963.1	22
1964.08	24.5
1965.07	24.5
1966.05	25.5
1967.04	26
1968.02	23.5
1969.01	27.5
1969.99	25
1970.98	23
1971.96	23.5
1972.95	24
1973.93	23
1974.91	24
1975.9	25.5
1976.88	23.5
1977.86	24
1978.85	25.5
1979.83	24.5
1980.81	23
1981.8	23
1982.78	23.5
1983.76	23
1984.74	22.5
1985.73	27
1986.71	24.5
1987.69	24
1988.67	24
1989.65	23.5
1990.63	21
1991.62	23
1992.6	24
1993.58	22
1994.56	24.5
1995.54	23
1996.52	23.5
1997.5	23.5
1998.48	24.5
1999.46	22
2000.44	22
2001.42	27.5
2002.4	23
2003.38	26.5
2004.36	28
2005.34	20.5
2006.32	27
2007.29	22
2008.27	21.5
2009.25	24
2010.23	22.5
2011.21	24
2012.19	28.5
2013.17	23.5
2014.14	19.5
2015.12	24
2016.1	27.5
2017.07	23.5
2018.05	23
2019.03	29
2020.01	21.5
2020.98	25.5
2021.96	24.5
2022.94	22
2023.91	23.5
2024.89	26.5
2025.86	22.5
2026.84	22
2027.82	19.5
2028.79	22.5
2029.77	24
2030.74	23
2031.72	22
2032.69	24.5
2033.67	25.5
2034.64	21
2035.62	25
2036.59	22.5
2037.56	27
2038.54	23
2039.51	21.5
2040.49	26.5
2041.46	23
2042.43	21
2043.41	24.5
2044.38	18
2045.35	24
2046.32	23.5
2047.3	24.5
2048.27	21.5
2049.24	26.5
2050.21	23.5
2051.19	23
2052.16	24
2053.13	20
2054.1	22
2055.07	23.5
2056.05	23.5
2057.02	19
2057.99	21
2058.96	22
2059.93	20.5
2060.9	22
2061.87	22
2062.84	25.5
2063.81	21.5
2064.78	23.5
2065.75	21.5
2066.72	25.5
2067.69	26
2068.66	18
2069.63	23
2070.6	21
2071.57	24
2072.54	23.5
2073.5	21.5
2074.47	26.5
2075.44	23
2076.41	24
2077.38	21.5
2078.35	23.5
2079.31	23.5
2080.28	23
2081.25	19.5
2082.22	22.5
2083.18	23
2084.15	22
2085.12	22.5
2086.08	23.5
2087.05	23.5
2088.02	23
2088.98	22.5
2089.95	25.5
2090.92	23.5
2091.88	21
2092.85	23.5
2093.81	20.5
2094.78	29
2095.74	24.5
2096.71	23
2097.67	21
2098.64	27
2099.6	26.5
2100.57	26
2101.53	19
2102.5	22.5
2103.46	18
2104.42	25
2105.39	19
2106.35	19.5
2107.32	19
2108.28	25
2109.24	23
2110.21	24
2111.17	21
2112.13	24.5
2113.09	23.5
2114.06	25.5
2115.02	23
2115.98	26
2116.94	27
2117.91	23
2118.87	23.5
2119.83	22.5
2120.79	24
2121.75	24
2122.71	22
2123.67	26
2124.63	22
2125.6	23
2126.56	21.5
2127.52	24
2128.48	23.5
2129.44	22.5
2130.4	27
2131.36	23
2132.32	19.5
2133.28	25
2134.23	26
2135.19	22
2136.15	23
2137.11	23.5
2138.07	24.5
2139.03	25.5
2139.99	23
2140.95	22.5
2141.9	20
2142.86	21.4801
2143.82	21.9974
2144.78	20.5654
2145.74	21.9884
2146.69	25.4013
2147.65	24.9005
2148.61	22.1578
2149.57	23.3837
2150.52	23.0578
2151.48	23.0624
2152.44	21.31
2153.39	19.3657
2154.35	22.8445
2155.31	23.0327
2156.26	22.9485
2157.22	22.2843
2158.17	21.9199
2159.13	18.2125
2160.08	22.8764
2161.04	23.9668
2161.99	23.2477
2162.95	21.3596
2163.91	22.7724
2164.86	19.4938
2165.81	22.457
2166.77	23.1714
2167.72	22.0384
2168.68	22.6526
2169.63	23.766
2170.58	24.9248
2171.54	22.4078
2172.49	23.1202
2173.45	22.8773
2174.4	21.5214
2175.35	21.3169
2176.31	21.6242
2177.26	25.951
2178.21	21.5192
2179.16	22.0057
2180.12	21.1822
2181.07	24.6824
2182.02	25.4735
2182.97	22.5874
2183.92	24.0881
2184.88	22.178
2185.83	21.1044
2186.78	23.8607
2187.73	21.4022
2188.68	20.8965
2189.63	23.11
2190.58	22.9165
2191.53	22.7926
2192.49	24.473
2193.43	20.232
2194.39	19.6944
2195.34	23.077
2196.28	22.5511
2197.24	22.2818
2198.19	21.2281
2199.13	21.3505
2200.08	21.5316
2201.03	21.797
2201.98	21.7819
2202.93	22.2082
2203.88	21.8054
2204.83	23.7812
2205.78	21.8002
2206.73	19.9238
2207.67	23.9245
2208.62	22.7824
2209.57	21.3964
2210.52	23.3446
2211.47	21.4835
2212.41	23.9876
2213.36	21.181
2214.31	23.2294
2215.26	20.2069
2216.2	22.6991
2217.15	20.8383
2218.1	23.679
2219.04	21.7536
2219.99	22.2688
2220.93	22.2569
2221.88	21.6474
2222.83	23.0044
2223.77	24.2667
2224.72	20.6465
2225.66	19.801
2226.61	22.0638
2227.55	23.6075
2228.5	20.3547
2229.44	18.7495
2230.39	23.1608
2231.33	23.2697
2232.28	23.734
2233.22	24
2234.17	25.7536
2235.11	21.0151
2236.06	21.4709
2237	24.2592
2237.94	21.9417
2238.89	22.1557
2239.83	22.4927
2240.06	22.5
2241.01	22.5
2241.96	20.5
2242.9	22.5
2243.85	23.5
2244.8	20.5
2245.75	22.5
2246.69	24.5
2247.64	23.5
2248.59	21
2249.53	24
2250.48	22
2251.43	24.5
2252.37	22.5
2253.32	22.5
2254.27	26
2255.21	25
2256.16	22.5
2257.1	21
2258.05	26
2259	23
2259.94	23
2260.89	23
2261.83	23
2262.78	22
2263.72	16.5
2264.67	21.5
2265.61	22.5
2266.56	22
2267.5	24.5
2268.44	24.5
2269.39	20
2270.33	24
2271.27	25.5
2272.22	24.5
2273.16	23
2274.1	21.5
2275.05	19.5
2275.99	25
2276.93	24
2277.88	25.5
2278.82	24
2279.76	21
2280.7	22.5
2281.65	23
2282.59	25
2283.53	21
2284.47	24
2285.41	23
2286.35	21.5
2287.29	24
2288.24	25
2289.18	20.5
2290.12	21
2291.06	28
2292	25.5
2292.94	22.5
2293.88	19
2294.82	21
2295.76	25.5
2296.7	24
2297.64	20.5
2298.58	20
2299.52	23
2300.46	22.5
2301.4	18
2302.34	26
2303.28	25
2304.21	20
2305.15	25
2306.09	25
2307.03	20
2307.97	23
2308.91	23
2309.84	23.5
2310.78	24.5
2311.72	25
2312.66	21
2313.59	20
2314.53	23.5
2315.47	22.5
2316.4	21.5
2317.34	24.5
2318.28	27
2319.22	23
2320.15	21
2321.09	25
2322.02	22.5
2322.96	23.5
2323.89	23.5
2324.83	21.5
2325.77	22.5
2326.7	21
2327.64	22
2328.57	25
2329.51	23.5
2330.44	24
2331.38	21.5
2332.31	23
2333.25	24
2334.18	27
2335.11	22
2336.05	24
2336.98	23
2337.92	18
2338.85	23.5
2339.78	19
2340.72	24.5
2341.65	22
2342.58	23
2343.52	26
2344.45	25
2345.38	26
2346.31	22.5
2347.25	25
2348.18	24.5
2349.11	20
2350.04	22
2350.97	25
2351.9	24
2352.84	25.5
2353.77	22
2354.7	21.5
2355.63	24
2356.56	22.5
2357.49	20
2358.42	26
2359.35	23
2360.28	21
2361.21	26.5
2362.14	23
2363.07	22
2364	24.5
2364.93	25.5
2365.86	26.5
2366.79	23
2367.72	23
2368.65	23.5
2369.58	23.5
2370.51	29.5
2371.44	20
2372.36	26
2373.29	20
2374.22	22.5
2375.15	25
2376.08	19
2377.01	24.5
2377.93	23.5
2378.86	28
2379.79	22.5
2380.72	25.5
2381.64	25
2382.57	20.5
2383.5	26
2384.42	26
2385.35	22.5
2386.28	19
2387.2	24
2388.13	27
2389.06	20.5
2389.98	26
2390.91	19
2391.83	23
2392.76	19
2393.69	23
2394.61	25.5
2395.54	26
2396.46	22.5
2397.39	24
2398.31	24
2399.23	22.5
2400.16	24
2401.08	23
2402.01	19
2402.93	25
2403.86	22.5
2404.78	24.5
2405.7	23
2406.63	23
2407.55	21
2408.47	25
2409.4	25
2410.32	25.5
2411.24	22
2412.17	25
2413.09	22
2414.01	23
2414.93	25
2415.85	24
2416.78	22
2417.7	24.5
2418.62	25
2419.54	23
2420.46	25.5
2421.38	24
2422.31	22
2423.23	24.5
2424.15	25
2425.07	23.5
2425.99	22.5
2426.91	23
2427.83	25
2428.75	24
2429.67	25.5
2430.59	23.5
2431.51	23
2432.43	23
2433.35	21
2434.27	23
2435.19	22
2436.11	28
2437.03	28.5
2437.94	23
2438.86	23.5
2439.78	25
2440.7	24
2441.62	23
2442.54	23.5
2443.46	25
2444.37	21.5
2445.29	25
2446.21	28.5
2447.13	20
2448.04	21
2448.96	21.5
2449.88	22.5
2450.8	22.5
2451.71	25.5
2452.63	23.5
2453.55	23
2454.46	22.5
2455.38	22
2456.29	23
2457.21	26.5
2458.13	25.5
2459.04	23
2459.96	22
2460.87	22.5
2461.79	23
2462.7	25
2463.62	21
2464.53	25
2465.45	23
2466.36	22.5
2467.28	20
2468.19	27
2469.11	20.5
2470.02	22
2470.93	22.5
2471.85	23
2472.76	21
2473.67	26.5
2474.59	25
2475.5	22
2476.42	26.5
2477.33	19
2478.24	22
2479.15	24
2480.07	30.5
2480.98	20
2481.89	25
2482.8	22
2483.72	27.5
2484.63	29.5
2485.54	24
2486.45	23
2487.36	28.5
2488.27	23
2489.19	24
2490.1	21.5
2491.01	21.5
2491.92	28
2492.83	23
2493.74	21
2494.65	23
2495.56	26
2496.47	24.5
2497.38	25.5
2498.29	24
2499.2	25
2500.11	24
2501.02	25.5
2501.93	26
2502.84	22.5
2503.75	20
2504.66	21.5
2505.57	21.5
2506.47	23
2507.38	22
2508.29	21
2509.2	22
2510.11	23.5
2511.02	22
2511.92	25.5
2512.83	26.5
2513.74	24.5
2514.65	24
2515.55	24
2516.46	24
2517.37	19
2518.28	25
2519.18	25.5
2520.09	22.5
2521	23.5
2521.9	26
2522.81	24
2523.72	21.5
2524.62	24
2525.53	23
2526.43	24
2527.34	24
2528.24	23.5
2529.15	21.5
2530.06	26.5
2530.96	22
2531.87	23.5
2532.77	26.5
2533.68	27
2534.58	24
2535.48	28
2536.39	25.5
2537.29	25.5
2538.2	26.5
2539.1	23.5
2540	24
2540.91	27.5
2541.81	24.5
2542.72	24
2543.62	22
2544.52	23.5
2545.42	24
2546.33	22.5
2547.23	22
2548.13	23.5
2549.04	25.5
2549.94	23.5
2550.84	23
2551.74	23
2552.64	23
2553.55	23.5
2554.45	22.5
2555.35	22
2556.25	23
2557.15	19
2558.05	26.5
2558.95	23
2559.85	23.5
2560.76	24.5
2561.66	22.5
2562.56	26
2563.46	21
2564.36	24.5
2565.26	26
2566.16	25.5
2567.06	21
2567.96	22.5
2568.86	29
2569.76	25
2570.66	24.5
2571.55	26
2572.45	25.5
2573.35	22.5
2574.25	23.5
2575.15	25
2576.05	25.5
2576.95	23.5
2577.84	27.5
2578.74	26
2579.64	25.5
2580.54	22.5
2581.44	21.5
2582.33	24.5
2583.23	24
2584.13	24
2585.03	25.5
2585.92	22.5
2586.82	21
2587.72	29
2588.61	26
2589.51	24
2590.41	24
2591.3	24
2592.2	24.5
2593.09	23
2593.99	22
2594.89	24.5
2595.78	22.5
2596.68	21.5
2597.57	26.5
2598.47	25
2599.36	23
2600.26	23.5
2601.15	17.5
2602.05	28
2602.94	25
2603.84	22.5
2604.73	25.5
2605.63	25
2606.52	26.5
2607.41	25
2608.31	23.5
2609.2	23
2610.09	24.5
2610.99	19.5
2611.88	23.5
2612.77	23.5
2613.67	23
2614.56	23
2615.45	24.5
2616.35	24
2617.24	26.5
2618.13	26
2619.02	25.5
2619.91	23.5
2620.81	25.5
2621.7	23.5
2622.59	25.5
2623.48	23.5
2624.37	25
2625.26	24
2626.15	24
2627.05	25.5
2627.94	24.5
2628.83	21
2629.72	24
2630.61	22.5
2631.5	27.5
2632.39	21
2633.28	26.5
2634.17	24.5
2635.06	23
2635.95	25
2636.84	27
2637.73	23.5
2638.62	29.5
2639.51	26.5
2640.4	26.5
2641.28	24
2642.17	21.5
2643.06	25
2643.95	26.5
2644.84	28
2645.73	23
2646.62	24
2647.5	26
2648.39	19.5
2649.28	25
2650.17	24
2651.05	26
2651.94	28
2652.83	25
2653.72	26.5
2654.6	25.5
2655.49	22.5
2656.38	22
2657.26	25
2658.15	24
2659.04	23
2659.92	26.5
2660.81	24.5
2661.69	26
2662.58	24
2663.47	20.5
2664.35	25
2665.24	22
2666.12	21
2667.01	27.5
2667.89	28.5
2668.78	25
2669.66	21.5
2670.55	25
2671.43	28.5
2672.32	22
2673.2	23.5
2674.08	23
2674.97	24.5
2675.85	22.5
2676.74	21
2677.62	24
2678.5	25
2679.39	24.5
2680.27	27
2681.15	28
2682.04	21
2682.92	25.5
2683.8	21
2684.68	24
2685.57	21
2686.45	24.5
2687.33	23.5
2688.21	22
2689.09	24.5
2689.98	25.5
2690.86	23.5
2691.74	23.5
2692.62	24.5
2693.5	19.5
2694.38	23.5
2695.27	16
2696.15	23.5
2697.03	21
2697.91	24
2698.79	24
2699.67	23.5
2700.55	23
2701.43	18
2702.31	24
2703.19	26.5
2704.07	25
2704.95	23.5
2705.83	26
2706.71	26.5
2707.59	26
2708.47	21.5
2709.34	25
2710.22	22.5
2711.1	25
2711.98	25.5
2712.86	23.5
2713.74	26
2714.62	24
2715.49	23
2716.37	23.5
2717.25	24
2718.13	24
2719.01	27.5
2719.88	24.5
2720.76	25.5
2721.64	24.5
2722.51	23.5
2723.39	22.5
2724.27	26.5
2725.14	21.5
2726.02	28.5
2726.9	22
2727.77	25.5
2728.65	23.5
2729.53	23
2730.4	23
2731.28	20
2732.15	27.5
2733.03	27
2733.91	26
2734.78	23
2735.66	23
2736.53	24.5
2737.41	19.5
2738.28	21.5
2739.16	23.5
2740.03	27
2740.9	23.5
2741.78	26
2742.65	22
2743.53	21
2744.4	23.5
2745.27	24.5
2746.15	26.5
2747.02	19
2747.89	28
2748.77	22
2749.64	22
2750.51	24.5
2751.39	23.5
2752.26	23
2753.13	25
2754.01	24.5
2754.88	25
2755.75	21
2756.62	23.5
2757.49	25.5
2758.37	22
2759.24	22
2760.11	27
2760.98	24
2761.85	23.5
2762.72	22.5
2763.59	26
2764.46	23.5
2765.34	26.5
2766.21	27
2767.08	27.5
2767.95	23
2768.82	25.5
2769.69	23
2770.56	21.5
2771.43	20
2772.3	25
2773.17	26
2774.04	25
2774.91	25
2775.78	24
2776.65	26.5
2777.51	23.5
2778.38	24
2779.25	22
2780.12	22.5
2780.99	23.5
2781.86	23.5
2782.73	23.5
2783.59	25.5
2784.46	23
2785.33	25
2786.2	26
2787.07	26.5
2787.93	25.5
2788.8	26.5
2789.67	24.5
2790.54	28
2791.4	26.5
2792.27	26
2793.14	22
2794	23
2794.87	23
2795.74	26.5
2796.6	25
2797.47	25.5
2798.34	25.5
2799.2	23.5
2800.07	28
2800.93	26.5
2801.8	25
2802.66	24
2803.53	27
2804.39	28
2805.26	27
2806.12	27
2806.99	21.5
2807.85	23
2808.72	20.5
2809.58	26.5
2810.45	26
2811.31	24
2812.18	21
2813.04	28.5
2813.9	25
2814.77	22.5
2815.63	27
2816.49	25
2817.36	26.5
2818.22	24
2819.08	30
2819.95	24
2820.81	19
2821.67	25.5
2822.53	23
2823.4	23
2824.26	24
2825.12	24
2825.98	26
2826.84	27
2827.71	27.5
2828.57	25
2829.43	24.5
2830.29	23
2831.15	23.5
2832.01	23.5
2832.88	25
2833.74	27.5
2834.6	27
2835.46	23.5
2836.32	24.5
2837.18	24
2838.04	22
2838.9	24
2839.76	25.5
2840.62	24
2841.48	25.5
2842.34	26
2843.2	23
2844.06	23
2844.92	25
2845.78	27
2846.63	26.5
2847.49	23.5
2848.35	27
2849.21	29
2850.07	23.5
2850.93	22.5
2851.79	24.5
2852.64	27
2853.5	26
2854.36	24
2855.22	25.5
2856.08	28
2856.93	26.5
2857.79	24
2858.65	28.5
2859.51	23
2860.36	26
2861.22	28
2862.08	25.5
2862.93	27.5
2863.79	25.5
2864.65	27
2865.5	27
2866.36	26
2867.22	26.5
2868.07	25
2868.93	30
2869.78	25
2870.64	31
2871.49	29
2872.35	27.5
2873.21	29
2874.06	30
2874.91	31
2875.77	26
2876.62	28
2877.48	30.5
2878.33	30.5
2879.19	28.5
2880.04	27
2880.9	33.5
2881.75	32
2882.6	32
2883.46	33.5
2884.31	30.5
2885.17	33.5
2886.02	32.5
2886.87	35
2887.73	33.5
2888.58	38
2889.43	35.5
2890.28	35
2891.14	37
2891.99	36.5
2892.84	36
2893.69	41
2894.55	43.5
2895.4	45.5
2896.25	46
2897.1	52
2897.95	52
2898.8	53.5
2899.66	55.5
2900.51	53.5
2901.36	56.5
2902.21	55.5
2903.06	63.5
2903.91	65
2904.76	65.5
2905.61	70
2906.46	65
2907.31	63.5
2908.16	63
2909.01	61.5
2909.86	62.5
2910.71	58
2911.56	51
2912.41	55.5
2913.26	49.5
2914.11	43
2914.96	45.5
2915.81	44
2916.66	43
2917.51	42
2918.36	35.5
2919.2	34.5
2920.05	34
2920.9	35.5
2921.75	31.5
2922.6	33
2923.45	29.5
2924.29	37.5
2925.14	32
2925.99	29
2926.84	32
2927.68	30.5
2928.53	29
2929.38	28
2930.23	28.5
2931.07	26.5
2931.92	27
2932.77	25
2933.61	25
2934.46	30
2935.3	27.5
2936.15	28.5
2937	29
2937.84	26.5
2938.69	28
2939.53	28.5
2940.38	30
2941.23	29
2942.07	27
2942.92	29.5
2943.76	27.5
2944.61	25.5
2945.45	25.5
2946.3	29
2947.14	28
2947.98	32
2948.83	28.5
2949.67	28
2950.52	26
2951.36	30.5
2952.2	33
2953.05	28.5
2953.89	33.5
2954.74	34.5
2955.58	33
2956.42	32.5
2957.27	33
2958.11	35
2958.95	35
2959.79	38
2960.64	38.5
2961.48	36.5
2962.32	36
2963.16	40.5
2964.01	40
2964.85	43
2965.69	43.5
2966.53	40.5
2967.37	40
2968.21	37
2969.06	42
2969.9	35.5
2970.74	35
2971.58	33.4976
2972.42	33.4793
2973.26	37.4775
2974.1	34.0248
2974.94	32.4295
2975.78	33.7651
2976.62	29.2286
2977.46	28.8391
2978.3	30.1286
2979.14	28.5119
2979.98	28.4621
2980.82	26.9181
2981.66	28.6882
2982.5	27.9155
2983.34	26.5809
2984.18	28.0403
2985.02	27.4067
2985.86	22.6095
2986.7	28.051
2987.54	28.51
2988.38	26.8118
2989.21	23.6144
2990.05	26.4497
2990.89	26.7015
2991.73	25.9068
2992.57	26.9888
2993.41	23.749
2994.24	25.0019
2995.08	22.732
2995.92	25.4951
2996.76	24.0076
2997.59	23.0413
2998.43	26.345
2999.27	24.9309
3000.1	24.1249
3000.94	23.7039
3001.78	24.2212
3002.61	26.0712
3003.45	24.1182
3004.29	23.43
3005.12	22.7301
3005.96	24.027
3006.8	21.4201
3007.63	23.624
3008.47	23.068
3009.3	25.5386
3010.14	22.9936
3010.97	24.1257
3011.81	24.7646
3012.64	23.2417
3013.48	21.1479
3014.31	22.769
3015.15	21.2167
3015.98	24.11
3016.82	22.0466
3017.65	23.4155
3018.49	20.13
3019.32	20.3744
3020.16	22.267
3020.99	20.9173
3021.82	23.3299
3022.66	21.6952
3023.49	21.8608
3024.32	22.1165
3025.16	21.591
3025.99	22.9692
3026.82	22.1772
3027.66	22.5305
3028.49	24.0073
3029.32	23.1758
3030.16	22.3689
3030.99	21.5507
3031.82	21.1758
3032.65	21.5728
3033.49	22.5113
3034.32	22.0799
3035.15	22.3622
3035.98	21.1339
3036.81	22.0111
3037.64	24.3965
3038.48	23.708
3039.31	20.9637
3040.14	24.4452
3040.97	25.1677
3041.8	23.551
3042.63	22.3958
3043.46	23.2798
3044.29	22.8344
3045.12	21.4223
3045.95	22.5558
3046.78	24.1743
3047.61	22.0831
3048.44	22.5197
3049.27	23.3369
3050.1	20.9072
3050.93	20.2879
3051.76	23.7358
3052.59	22.7394
3053.42	20.8501
3054.25	21.604
3055.08	22.266
3055.91	23.7537
3056.74	23.6823
3057.26	24
3058.09	21
3058.92	24
3059.76	21
3060.59	21.5
3061.42	21
3062.26	24
3063.09	26.5
3063.92	22
3064.75	17
3065.59	21.5
3066.42	21
3067.25	24.5
3068.08	18.5
3068.91	22
3069.74	23
3070.58	25.5
3071.41	20
3072.24	22.5
3073.07	25
3073.9	21.5
3074.73	24.5
3075.56	24
3076.39	23
3077.22	23.5
3078.05	22.5
3078.88	22
3079.71	24.5
3080.55	21.5
3081.38	20
3082.2	23
3083.03	22
3083.86	25
3084.69	22
3085.52	25
3086.35	20.5
3087.18	23
3088.01	22.5
3088.84	24.5
3089.67	22
3090.5	23
3091.33	24
3092.15	23.5
3092.98	23
3093.81	28.5
3094.64	23
3095.47	24.5
3096.29	24
3097.12	24.5
3097.95	24
3098.78	29
3099.6	23.5
3100.43	22.5
3101.26	24.5
3102.09	22
3102.91	22.5
3103.74	21
3104.57	23.5
3105.39	27
3106.22	23
3107.05	21.5
3107.87	20
3108.7	19
3109.52	25
3110.35	23.5
3111.18	23.5
3112	24.5
3112.83	26.5
3113.65	20.5
3114.48	20
3115.3	22
3116.13	21.5
3116.95	22.5
3117.78	22.5
3118.6	23
3119.43	24
3120.25	24.5
3121.08	21
3121.9	20
3122.73	24.5
3123.55	19.5
3124.37	23.5
3125.2	22
3126.02	21.5
3126.84	24
3127.67	25
3128.49	25
3129.31	25.5
3130.14	27
3130.96	25.5
3131.78	22.5
3132.61	25
3133.43	21.5
3134.25	22.5
3135.07	22
3135.9	26
3136.72	20.5
3137.54	24.5
3138.36	22.5
3139.18	24.5
3140.01	26
3140.83	25
3141.65	23
3142.47	22
3143.29	23.5
3144.11	27.5
3144.93	27.5
3145.75	22
3146.58	26
3147.4	18.5
3148.22	25
3149.04	20.5
3149.86	26
3150.68	20
3151.5	21.5
3152.32	23.5
3153.14	24
3153.96	26.5
3154.78	25
3155.6	22.5
3156.42	23.5
3157.23	20
3158.05	23.5
3158.87	20
3159.69	22.5
3160.51	25
3161.33	23.5
3162.15	22
3162.97	25
3163.79	26
3164.6	20.5
3165.42	26
3166.24	26
3167.06	24
3167.88	26
3168.69	22.5
3169.51	27.5
3170.33	21.5
3171.15	25.5
3171.96	24
3172.78	22
3173.6	22.5
3174.41	20
3175.23	21.5
3176.05	23.5
3176.86	23
3177.68	24
3178.5	26
3179.31	22.5
3180.13	26.5
3180.95	26
3181.76	23
3182.58	23
3183.39	24
3184.21	25
3185.02	26
3185.84	23
3186.65	22.5
3187.47	22
3188.28	22
3189.1	21.5
3189.91	25
3190.73	22
3191.54	23
3192.36	19
3193.17	27.5
3193.99	20
3194.8	27
3195.61	25
3196.43	24.5
3197.24	26.5
3198.05	23.5
3198.87	21
3199.68	22
3200.49	25.5
3201.31	23.5
3202.12	24
3202.93	24
3203.75	22
3204.56	25
3205.37	22
3206.18	26.5
3207	23
3207.81	20.5
3208.62	23
3209.43	21.5
3210.24	26.5
3211.06	20.5
3211.87	25.5
3212.68	20.5
3213.49	21
3214.3	24.5
3215.11	25
3215.92	22.5
3216.74	22
3217.55	20.5
3218.36	22
3219.17	21
3219.98	25
3220.79	24.5
3221.6	24
3222.41	20
3223.22	20.5
3224.03	27.5
3224.84	23
3225.65	23
3226.46	19.5
3227.27	25
3228.08	26.5
3228.89	23
3229.7	26
3230.5	23
3231.31	23
3232.12	23.5
3232.93	23.5
3233.74	23
3234.55	21
3235.36	21
3236.16	23
3236.97	22.5
3237.78	25
3238.59	25
3239.4	22.5
3240.2	20.5
3241.01	22.5
3241.82	25.5
3242.63	22
3243.43	23
3244.24	22
3245.05	22
3245.86	24.5
3246.66	21
3247.47	25.5
3248.28	24
3249.08	24.5
3249.89	23
3250.69	23.5
3251.5	23
3252.31	21.5
3253.11	25
3253.92	29.5
3254.72	23
3255.53	23
3256.34	23
3257.14	23.5
3257.95	24
3258.75	22.5
3259.56	22.5
3260.36	24.5
3261.17	21
3261.97	21.5
3262.77	25
3263.58	19
3264.38	21
3265.19	27
3265.99	21.5
3266.8	23.5
3267.6	24.5
3268.4	23
3269.21	19.5
3270.01	22
3270.81	22
3271.62	25
3272.42	20.5
3273.22	27
3274.03	24
3274.83	23.5
3275.63	23.5
3276.43	24
3277.24	25.5
3278.04	22
3278.84	22
3279.64	22.5
3280.45	24
3281.25	24
3282.05	24
3282.85	27.5
3283.65	21.5
3284.46	21
3285.26	23.5
3286.06	24
3286.86	22
3287.66	27.5
3288.46	23.5
3289.26	20
3290.06	23.5
3290.86	25
3291.66	21.5
3292.46	25.5
3293.26	28
3294.06	22.5
3294.86	22
3295.66	18.5
3296.46	22.5
3297.26	25.5
3298.06	25.5
3298.86	23.5
3299.66	24
3300.46	25.5
3301.26	23
3302.06	23.5
3302.86	23.5
3303.66	25.5
3304.46	22.5
3305.26	22.5
3306.05	26
3306.85	24
3307.65	24
3308.45	22
3309.25	22
3310.04	25
3310.84	19.5
3311.64	22.5
3312.44	25
3313.24	28.5
3314.03	22.5
3314.83	20
3315.63	17
3316.42	26
3317.22	24
3318.02	21.5
3318.82	25
3319.61	21
3320.41	24
3321.2	24
3322	26.5
3322.8	25
3323.59	25
3324.39	20
3325.19	21
3325.98	21.5
3326.78	23.5
3327.57	20
3328.37	24
3329.16	24.5
3329.96	22.5
3330.75	23.5
3331.55	24
3332.34	25.5
3333.14	23.5
3333.93	22
3334.73	25
3335.52	20
3336.32	27
3337.11	24.5
3337.9	26
3338.7	22
3339.49	25.5
3340.29	19
3341.08	24
3341.87	25.5
3342.67	23
3343.46	22
3344.25	22
3345.05	24.5
3345.84	27
3346.63	23
3347.42	26
3348.22	23.5
3349.01	24
3349.8	26.5
3350.59	20.5
3351.39	21.5
3352.18	21
3352.97	21
3353.76	24.5
3354.55	23
3355.35	22
3356.14	25.5
3356.93	22.5
3357.72	26.5
3358.51	22
3359.3	24
3360.09	24.5
3360.88	24
3361.67	22.5
3362.47	23.5
3363.26	24
3364.05	24.5
3364.84	25.5
3365.63	25
3366.42	28
3367.21	23.5
3368	24.5
3368.79	26.5
3369.58	21.5
3370.37	26.5
3371.16	21.5
3371.95	27
3372.73	22
3373.52	22
3374.31	24.5
3375.1	22.5
3375.89	24.5
3376.68	26.5
3377.47	23.5
3378.26	23.5
3379.04	27
3379.83	24
3380.62	24.5
3381.41	21
3382.2	24
3382.98	24.5
3383.77	24.5
3384.56	24.5
3385.35	22
3386.14	22.5
3386.92	23
3387.71	24.5
3388.5	19.5
3389.28	21.5
3390.07	21
3390.86	23.5
3391.64	25
3392.43	22
3393.22	25
3394	22.5
3394.79	27.5
3395.58	26
3396.36	20.5
3397.15	22
3397.93	20
3398.72	23
3399.5	21
3400.29	23
3401.07	21
3401.86	23
3402.65	27
3403.43	24.5
3404.22	23.5
3405	23
3405.79	25
3406.57	23
3407.35	23
3408.14	24.5
3408.92	23
3409.71	24.5
3410.49	22.5
3411.27	25
3412.06	27.5
3412.84	27.5
3413.63	27.5
3414.41	26.5
3415.19	25.5
3415.98	21.5
3416.76	26
3417.54	18
3418.32	26.5
3419.11	22.5
3419.89	23.5
3420.67	24.5
3421.46	26.5
3422.24	25.5
3423.02	25
3423.8	23
3424.58	23
3425.37	27
3426.15	22
3426.93	25.5
3427.71	24
3428.49	22
3429.27	24
3430.06	25
3430.84	25.5
3431.62	26.5
3432.4	25
3433.18	23.5
3433.96	25.5
3434.74	25.5
3435.52	28.5
3436.3	21.5
3437.08	22
3437.86	23.5
3438.64	21
3439.42	21
3440.2	24.5
3440.98	21
3441.76	22.5
3442.54	27.5
3443.32	26.5
3444.1	24
3444.88	23.5
3445.66	28.5
3446.44	21.5
3447.22	25
3448	26
3448.78	20.5
3449.55	21
3450.33	24.5
3451.11	20
3451.89	22.5
3452.67	22
3453.45	23
3454.22	22
3455	26
3455.78	21.5
3456.56	26
3457.33	24
3458.11	23.5
3458.89	22.5
3459.67	24
3460.44	21
3461.22	21.5
3462	20.5
3462.77	22.5
3463.55	20
3464.33	24
3465.1	20.5
3465.88	21.5
3466.66	25.5
3467.43	22
3468.21	23.5
3468.99	22.5
3469.76	21
3470.54	24
3471.31	26.5
3472.09	26
3472.86	24
3473.64	24
3474.41	22
3475.19	22
3475.96	21.5
3476.74	23.5
3477.51	22.5
3478.29	25.5
3479.06	24
3479.84	27
3480.61	20.5
3481.39	22.5
3482.16	22.5
3482.93	25
3483.71	24.5
3484.48	22
3485.26	23.5
3486.03	22
3486.8	21
3487.58	23
3488.35	22
3489.12	24
3489.9	22.5
3490.67	25
3491.44	23.5
3492.21	20.5
3492.99	26
3493.76	18
3494.53	26.5
3495.3	24.5
3496.08	24.5
3496.85	21
3497.62	23
3498.39	20
3499.16	23
3499.94	24
