#Acq. time (s)=	5
#Accumulations=	5
#Range (cm-¹)=	100...3500
#Windows=	4
#Autofocus=	Off
#AutoExposure=	Off
#Spike filter=	Multiple accum.
#Delay time (s)=	0
#Binning=	1
#Readout mode=	Signal
#DeNoise=	Off
#ICS correction=	Off
#Dark correction=	Off
#Inst. Process=	Off
#Instrument=	LabRAM HR Evol
#Detector=	Syncerity OE
#Objective=	x100_VIS
#Grating=	600 (500nm)
#ND Filter=	25%
#Laser=	633nm_Edge
#Hole=	100.021
#Range=	Visible
#Project=	verificaciones
#Sample=	a3
#Site=	lined
#Title=	bolusa3lined
#Remark=	
#Date=	12.01.2026 16:18
#Acquired=	12.01.2026 16:18:14
100.666	23.5
101.95	29.5
103.233	24
104.516	27.5
105.799	28
107.083	24
108.365	28.5
109.648	28.5
110.93	21
112.212	28
113.493	25
114.775	25
116.056	26
117.337	29.5
118.618	29.5
119.898	29.5
121.178	28.5
122.459	29.5
123.739	29
125.018	28.5
126.298	28
127.577	30
128.856	25
130.135	28.5
131.414	28
132.692	28
133.971	30.5
135.249	31
136.525	30.5
137.803	31.5
139.08	32.5
140.357	29
141.634	28
142.911	27.5
144.188	25
145.464	32
146.74	29.5
148.015	27
149.291	32
150.566	30
151.842	28.5
153.117	27.5
154.392	29
155.665	31.5
156.939	30
158.214	27.5
159.488	30
160.76	24
162.034	28
163.307	29
164.581	31.5
165.854	29.5
167.125	30.5
168.398	32
169.67	30.5
170.941	31.5
172.213	29
173.485	32
174.756	24
176.026	32
177.298	31.5
178.569	30.5
179.838	30.5
181.109	28.5
182.379	30
183.648	30
184.918	29.5
186.187	32
187.455	27
188.725	32.5
189.992	29
191.261	31
192.53	30.5
193.797	32
195.065	31.5
196.332	31
197.6	29
198.866	31
200.134	31
201.401	28
202.667	30
203.933	29
205.199	29
206.465	25
207.73	31
208.996	29.5
210.26	29
211.526	25
212.79	30.5
214.055	30.5
215.319	22
216.582	28
217.847	31
219.11	28
220.374	29
221.636	23.5
222.9	28
224.162	29
225.424	27.5
226.687	23
227.949	30
229.212	25.5
230.473	30.5
231.734	23
232.996	26.5
234.256	23
235.517	26.5
236.778	29.5
238.038	24
239.298	28
240.559	28
241.818	31
243.077	25.5
244.337	25
245.596	26
246.854	24
248.113	28
249.372	25.5
250.63	27.5
251.887	29
253.145	25
254.404	26
255.661	25.5
256.917	29
258.174	26
259.432	27.5
260.688	28
261.944	28.5
263.2	31.5
264.456	25
265.711	24
266.968	30.5
268.223	29
269.477	25.5
270.732	26.5
271.986	28.5
273.24	24.5
274.494	27
275.748	28
277.003	27.5
278.257	25
279.51	29
280.763	22.5
282.015	25.5
283.268	26
284.52	29.5
285.773	25
287.024	25
288.276	28.5
289.528	24.5
290.779	26.5
292.03	28.5
293.281	23
294.532	24
295.782	27.5
297.033	28
298.283	27.5
299.533	28.5
300.783	23
302.032	29.5
303.281	22
304.531	27.5
305.78	25
307.028	25
308.275	22
309.524	23
310.772	25.5
312.02	22.5
313.267	27.5
314.515	19.5
315.762	24
317.009	29
318.255	28.5
319.501	27.5
320.748	22
321.994	31.5
323.24	28
324.486	24
325.731	23.5
326.976	28.5
328.221	30.5
329.466	27
330.71	29
331.955	25.5
333.199	30
334.443	25
335.686	27.5
336.93	30
338.174	26
339.417	27
340.659	29
341.902	24.5
343.145	23.5
344.386	30
345.629	25.5
346.871	24.5
348.112	26
349.354	27.5
350.595	26.5
351.836	30.5
353.077	28
354.318	28
355.557	27
356.798	26
358.037	28
359.277	29
360.518	26.5
361.756	24.5
362.996	26
364.234	29
365.473	24
366.711	26.5
367.95	28
369.187	28
370.426	25.5
371.662	28
372.901	25
374.137	26
375.375	30
376.611	29
377.848	27.5
379.084	30.5
380.321	26
381.556	20
382.793	24
384.027	26.5
385.264	28.5
386.498	24.5
387.732	26.5
388.968	26.5
390.202	27.5
391.437	32.5
392.671	27.5
393.904	28.5
395.138	26.5
396.371	29
397.604	31
398.838	27
400.07	27
401.302	26.5
402.536	25
403.768	26.5
404.999	25
406.232	27.5
407.463	26.5
408.694	24
409.925	27
411.157	26
412.387	25
413.617	29
414.847	26.5
416.078	25.5
417.308	25
418.537	22.5
419.767	31
420.997	23.5
422.226	26
423.454	29
424.683	24.5
425.911	30
427.139	26
428.368	26
429.596	22
430.823	26.5
432.05	29
433.277	26.5
434.504	30.5
435.731	28
436.957	25
438.185	25
439.411	30.5
440.637	28.5
441.862	28
443.088	25.5
444.313	27
445.538	26.5
446.763	29
447.988	24.5
449.212	30
450.436	27
451.661	27.5
452.884	27
454.108	26
455.332	29.5
456.555	29
457.778	24
459.001	28.5
460.224	26.5
461.446	24.5
462.668	26
463.891	28
465.111	31
466.333	27.5
467.554	31.5
468.776	33
469.997	30
471.218	27
472.439	30.5
473.659	29.5
474.878	29
476.098	31
477.318	29.5
478.538	33
479.758	34.5
480.977	34.5
482.195	36.5
483.414	41.5
484.633	36
485.851	39
487.07	38.5
488.287	40
489.505	40.5
490.723	37.5
491.94	37.5
493.156	38.5
494.374	34
495.591	33
496.806	34.5
498.023	34.5
499.239	34
500.456	34
501.67	31
502.886	29.5
504.102	27
505.316	28.5
506.531	31
507.745	26.5
508.96	32
510.175	29.5
511.388	27.5
512.602	28
513.815	27
515.029	30
516.243	29.5
517.455	27.5
518.669	27
519.88	26
521.093	27.5
522.305	28
523.518	28
524.729	25.5
525.941	22.5
527.151	28.5
528.363	29
529.574	28
530.785	25.5
531.995	30
533.206	24
534.416	28
535.626	28.5
536.835	29.5
538.046	25
539.254	26.5
540.463	29.5
541.673	27.5
542.881	29.5
544.09	31
545.298	27.5
546.506	27
547.714	30
548.922	27
550.13	29.5
551.337	28.5
552.544	28.5
553.751	27
554.958	26
556.164	25
557.37	26.5
558.577	22
559.782	27
560.987	27
562.194	26.5
563.399	27.5
564.604	30
565.808	28
567.014	26
568.218	23
569.422	27
570.626	31.5
571.829	26
573.034	27
574.237	25
575.44	25.5
576.643	26
577.846	25.5
579.048	25.5
580.252	26
581.454	27
582.656	29
583.857	29.5
585.059	25
586.26	27
587.461	28
588.662	27.5
589.863	29
591.065	27
592.265	27.5
593.465	24
594.665	28
595.865	25
597.065	27
598.264	26.5
599.463	25.5
600.662	24
601.861	29.5
603.06	28
604.258	27
605.457	26.5
606.655	27.5
607.853	27.5
609.05	23.5
610.248	27
611.444	27
612.641	29.5
613.838	28
615.034	28.5
616.231	26.5
617.427	30.5
618.624	24.5
619.82	28.5
621.015	29
622.21	23.5
623.405	27
624.6	27.5
625.795	27
626.99	24
628.185	25
629.378	25.5
630.572	30.5
631.766	27.5
632.96	27
634.154	23
635.346	25
636.54	25.5
637.733	29.5
638.926	26
640.117	26
641.31	29
642.502	24
643.693	26.5
644.885	28.5
646.077	29
647.267	28
648.459	23
649.65	25.5
650.84	27.5
652.031	25
653.222	27
654.411	26
655.601	27.5
656.791	26
657.98	24
659.17	33.5
660.358	30.5
661.547	21.5
662.737	31
663.924	27
665.113	28
666.3	24.5
667.489	29.5
668.676	28
669.864	29.5
671.05	28
672.238	26
673.424	26.5
674.612	23
675.798	25.5
676.985	28.5
678.17	27.5
679.357	28.5
680.542	30.5
681.728	29.5
682.913	29
684.097	31
685.283	21
686.467	30
687.652	29
688.836	28
690.02	28
691.205	30
692.388	27
693.571	32.5
694.755	28
695.938	27
697.12	28.5
698.304	29.5
699.486	29.5
700.668	31
701.851	30.5
703.032	30.5
704.214	34
705.395	37.5
706.577	37
707.758	34
708.939	35
710.119	35.5
711.301	37
712.481	32
713.661	33
714.84	30
716.02	29.5
717.201	29
718.38	28
719.559	29.5
720.737	29.5
721.916	26
723.094	29
724.274	24.5
725.452	27
726.63	30.5
727.808	26
728.985	25
730.162	26.5
731.339	26.5
732.516	29
733.693	29
734.87	26
736.046	27
737.222	28.5
738.398	28.5
739.574	25.5
740.75	28.5
741.925	26
743.1	31
744.276	26
745.45	27.5
746.625	22.5
747.8	29
748.974	28.5
750.148	25.5
751.322	28
752.496	25
753.67	29
754.843	27
756.016	28
757.189	26
758.362	29.5
759.534	28.5
760.706	23
761.878	26
763.051	25.5
764.223	24.5
765.394	29
766.565	24
767.736	24
768.907	24
770.078	23.5
771.249	28
772.419	24
773.589	30.5
774.759	27
775.93	27
777.098	27
778.268	26.5
779.438	26.5
780.607	28
781.775	28
782.944	23.5
784.113	27.5
785.28	25.5
786.449	30
787.617	31.5
788.784	25.5
789.952	30.5
791.12	28
792.286	28.5
793.453	29.5
794.62	30
795.786	25
796.953	27.5
798.118	24.5
799.285	26
800.45	24.5
801.616	25
802.782	28
803.946	28.5
805.112	26
806.276	28
807.441	25
808.605	27.5
809.77	26.5
810.933	26.5
812.098	23
813.261	27
814.425	28.5
815.588	29
816.75	26.5
817.914	25
819.076	32.5
820.239	26.5
821.401	25
822.564	28.5
823.725	23.5
824.886	26
826.048	28
827.209	23
828.37	28.5
829.532	27.5
830.692	26.5
831.852	23.5
833.013	25.5
834.173	27.5
835.333	27
836.493	26
837.653	25
838.812	25
839.972	23.5
841.13	31.5
842.289	31
843.447	30
844.607	25.5
845.765	29.5
846.922	27.5
848.08	25.5
849.237	24.5
850.396	24.5
851.553	24
852.71	23
853.867	28
855.023	24.5
856.179	29
857.337	25.5
858.493	25
859.649	29
860.804	26
861.96	26.5
863.115	30
864.27	29.5
865.425	26.5
866.58	26.5
867.734	26
868.888	25
870.043	20
871.197	26
872.35	27
873.504	27
874.658	28.5
875.811	29.5
876.964	27
878.117	27
879.27	29.5
880.422	28.5
881.575	27
882.727	26
883.879	29.5
885.031	29.5
886.182	28.5
887.334	26.5
888.485	23.5
889.636	30
890.787	26
891.937	27.5
893.088	27
894.238	25.5
895.388	30
896.538	24
897.688	25
898.837	27
899.986	23
901.136	27.5
902.285	25.5
903.434	27.5
904.581	26.5
905.73	24
906.878	24.5
908.027	28
909.174	21
910.321	25.5
911.469	25
912.617	22
913.763	27.5
914.91	23
916.057	30.5
917.203	28
918.35	23.5
919.496	26.5
920.641	23
921.787	28
922.933	27.5
924.078	27
925.224	27.5
926.368	26.5
927.513	26
928.658	26.5
929.802	23.5
930.946	22
932.09	24.5
933.234	24
934.377	26
935.521	24
936.664	22
937.807	23.5
938.95	27.5
940.093	25.5
941.235	29.5
942.378	24.5
943.519	21.5
944.662	22
945.803	28
946.946	24.5
948.086	24
949.227	26
950.369	24
951.509	23
952.651	24
953.79	27
954.93	27.5
956.071	26
957.211	24
958.35	23.5
959.49	28.5
960.629	24.5
961.768	25
962.908	27.5
964.046	23
965.184	27
966.323	26
967.461	26
968.599	27
969.736	21.5
970.875	24.5
972.012	26
973.149	24
974.286	24.5
975.424	25.5
976.56	25.5
977.697	22.5
978.833	25
979.969	25
981.104	24.5
982.241	27.5
983.377	27
984.512	27
985.647	21
986.782	28
987.916	24
989.051	26.5
990.185	24
991.321	21.5
992.455	23.5
993.589	27
994.722	28.5
995.856	25
996.989	25
998.122	26
999.255	23.5
1000.39	26.5
1001.52	24
1002.65	26.5
1003.79	23.5
1004.92	25.5
1006.05	25
1007.18	22.5
1008.31	24.5
1009.44	24.5
1010.57	20.5
1011.7	23
1012.84	27
1013.97	27.5
1015.1	25.5
1016.23	26.5
1017.36	27
1018.49	22.5
1019.62	22
1020.75	23.5
1021.88	26
1023	27
1024.13	24
1025.26	25
1026.39	25
1027.52	21
1028.65	23
1029.78	24.5
1030.9	25
1032.03	25
1033.16	27
1034.29	23
1035.41	23
1036.54	22
1037.67	27.5
1038.79	27
1039.92	26
1041.04	23
1042.17	25
1043.3	23
1044.42	27
1045.55	25
1046.67	27
1047.8	24
1048.92	26.5
1050.05	29
1051.17	25
1052.3	23.5
1053.42	26
1054.54	22
1055.67	25
1056.79	25.5
1057.91	27.5
1059.04	27
1060.16	25
1061.28	22
1062.41	26
1063.53	26.5
1064.65	22.5
1065.77	26
1066.9	26.5
1068.02	23
1069.14	21
1070.26	27.5
1071.38	29.5
1072.5	23
1073.62	24
1074.74	22
1075.86	22.5
1076.98	23.5
1078.1	23
1079.22	25.5
1080.34	24
1081.46	25
1082.58	20
1083.7	22.5
1084.82	16
1085.94	24.5
1087.06	23
1088.18	27
1089.29	20
1090.41	25
1091.53	24
1092.65	22
1093.77	22.5
1094.88	25
1096	25
1097.12	26
1098.23	25.5
1099.35	21.5
1100.47	24
1101.58	21.5
1102.7	23.5
1103.82	25
1104.93	23.5
1106.05	21
1107.16	24.5
1108.28	21.5
1109.39	19
1110.51	24.5
1111.62	28
1112.74	23
1113.85	26.5
1114.96	24
1116.08	30
1117.19	25
1118.31	23
1119.42	25
1120.53	24.5
1121.65	24
1122.76	26.5
1123.87	23
1124.98	27
1126.1	20.5
1127.21	24.5
1128.32	27.5
1129.43	28.5
1130.54	26.5
1131.65	26
1132.76	24
1133.88	24
1134.99	24
1136.1	21
1137.21	26
1138.32	27
1139.43	30
1140.54	25.5
1141.65	22
1142.76	20
1143.87	24.5
1144.98	24.5
1146.08	24
1147.19	24.5
1148.3	23
1149.41	26.5
1150.52	23
1151.63	24
1152.73	22
1153.84	26.5
1154.95	20.5
1156.06	24.5
1157.17	26.5
1158.27	25
1159.38	24.5
1160.49	26
1161.59	20
1162.7	24.5
1163.8	25
1164.91	20
1166.02	26
1167.12	23
1168.23	28
1169.33	24
1170.44	24
1171.54	22
1172.65	21
1173.75	22.5
1174.86	22
1175.96	20
1177.06	22
1178.17	23
1179.27	25
1180.37	22.5
1181.48	25
1182.58	25
1183.68	24
1184.79	25
1185.89	25
1186.99	23.5
1188.09	25
1189.2	21.5
1190.3	28.5
1191.4	23.5
1192.5	23.5
1193.6	21
1194.7	23.9897
1195.8	24.4375
1196.9	23.5141
1198.01	21.2089
1199.11	21.0342
1200.21	23.9758
1201.31	25.4807
1202.41	21.9699
1203.5	22.8966
1204.6	23.7376
1205.7	24.5408
1206.8	21.1827
1207.9	24.9484
1209	21.0519
1210.1	25.1678
1211.2	23.1403
1212.3	24.7911
1213.39	21.6261
1214.49	24.4862
1215.59	21.6702
1216.69	25.5216
1217.78	26.1166
1218.88	26.0941
1219.98	21.8529
1221.08	24.1917
1222.17	20.0765
1223.27	20.9865
1224.37	23.258
1225.46	22.353
1226.56	25.6549
1227.65	20.9818
1228.75	24.6852
1229.84	23.1065
1230.94	24.2353
1232.03	22.695
1233.13	24.3813
1234.22	25.3812
1235.32	25.593
1236.41	22.2617
1237.51	24.1808
1238.6	22.8702
1239.69	20.4089
1240.79	22.0036
1241.88	24.365
1242.97	21.3565
1244.07	24.6056
1245.16	21.2374
1246.25	21.0589
1247.35	22.7407
1248.44	24.7661
1249.53	26.1691
1250.62	23.8442
1251.71	23.4773
1252.81	22.8201
1253.9	23.8057
1254.99	25.2237
1256.08	25.0803
1257.17	23.8146
1258.26	24.4116
1259.35	23.3665
1260.44	24.4604
1261.53	24.2227
1262.62	24.8715
1263.71	24.7304
1264.8	23.9337
1265.89	24.6279
1266.98	24.2802
1268.07	24.4871
1269.16	24.4972
1270.25	21.9239
1271.34	25.7245
1272.43	24.4878
1273.52	23.0687
1274.6	20.1601
1275.69	23.3131
1276.78	23.2245
1277.87	21.9503
1278.95	23.437
1280.04	22.7886
1281.13	24.6633
1282.22	24.1652
1283.3	25.8086
1284.39	24.9303
1285.48	24.601
1286.56	24.2776
1287.65	23.0847
1288.73	22.8518
1289.82	23.5
1290.91	23.4461
1291.99	21.3705
1293.08	22.9187
1294.16	22.1397
1295.24	20.3377
1296.33	20.6937
1297.41	18.9854
1298.5	21.8974
1299.58	24.0727
1300.67	22.4895
1301.75	20.5823
1302.83	20.7519
1303.92	26.3056
1305	22.0467
1306.08	22.3489
1306.4	23.5
1307.49	23
1308.58	24
1309.66	22.5
1310.75	22
1311.84	27
1312.93	26.5
1314.01	26
1315.1	22
1316.19	23
1317.27	27
1318.36	22
1319.45	20.5
1320.53	22
1321.62	23
1322.71	25
1323.79	25
1324.88	26
1325.96	23
1327.05	25
1328.13	24.5
1329.22	23.5
1330.3	24
1331.39	26.5
1332.47	25
1333.55	24
1334.64	21.5
1335.72	22.5
1336.81	25.5
1337.89	22
1338.97	25
1340.06	25
1341.14	23.5
1342.22	26.5
1343.3	26
1344.39	21
1345.47	21
1346.55	24
1347.63	22
1348.71	24
1349.8	25
1350.88	26
1351.96	22
1353.04	24
1354.12	22
1355.2	22
1356.28	21
1357.36	24
1358.44	22
1359.52	26
1360.6	21.5
1361.68	26
1362.76	20
1363.84	23
1364.92	21
1366	25
1367.08	24.5
1368.16	25
1369.23	24
1370.31	24.5
1371.39	25.5
1372.47	27.5
1373.55	26
1374.62	21
1375.7	24
1376.78	26.5
1377.86	25
1378.93	19
1380.01	27.5
1381.09	23.5
1382.16	26.5
1383.24	24
1384.32	25
1385.39	21
1386.47	23
1387.54	23.5
1388.62	23.5
1389.69	25.5
1390.77	23
1391.84	25
1392.92	28
1393.99	26.5
1395.07	27.5
1396.14	22
1397.21	24
1398.29	25
1399.36	25.5
1400.44	26
1401.51	26
1402.58	27
1403.66	24
1404.73	22
1405.8	27.5
1406.87	26
1407.95	20
1409.02	24
1410.09	24.5
1411.16	29
1412.23	24
1413.3	23.5
1414.38	29.5
1415.45	28
1416.52	27.5
1417.59	28
1418.66	26
1419.73	25
1420.8	27.5
1421.87	28
1422.94	24
1424.01	26.5
1425.08	25
1426.15	24
1427.22	26
1428.29	26
1429.36	23.5
1430.43	25.5
1431.49	27
1432.56	28
1433.63	27.5
1434.7	24
1435.77	23.5
1436.83	26
1437.9	23.5
1438.97	27
1440.04	26.5
1441.1	28
1442.17	24
1443.24	22.5
1444.3	27
1445.37	24
1446.44	24.5
1447.5	22
1448.57	26
1449.63	22
1450.7	25
1451.77	25.5
1452.83	24.5
1453.9	23.5
1454.96	29
1456.03	25.5
1457.09	26
1458.15	23.5
1459.22	25
1460.28	21
1461.35	22
1462.41	22.5
1463.47	28
1464.54	24
1465.6	24.5
1466.66	20
1467.73	24.5
1468.79	24
1469.85	23
1470.91	21
1471.98	28
1473.04	26
1474.1	25
1475.16	26.5
1476.22	29
1477.28	24
1478.35	25
1479.41	23.5
1480.47	22
1481.53	23
1482.59	26
1483.65	29.5
1484.71	23.5
1485.77	22.5
1486.83	27.5
1487.89	24
1488.95	25.5
1490.01	26
1491.07	24.5
1492.13	27.5
1493.18	26
1494.24	24
1495.3	25.5
1496.36	25
1497.42	23
1498.48	23.5
1499.53	26
1500.59	25.5
1501.65	21.5
1502.71	24.5
1503.76	21.5
1504.82	26.5
1505.88	26.5
1506.93	27.5
1507.99	24
1509.05	28
1510.1	23.5
1511.16	28
1512.21	24
1513.27	21
1514.33	28
1515.38	28.5
1516.44	23.5
1517.49	26
1518.55	25
1519.6	24.5
1520.66	24.5
1521.71	26
1522.76	23
1523.82	22
1524.87	27
1525.93	23.5
1526.98	28.5
1528.03	26
1529.08	25
1530.14	24
1531.19	20.5
1532.24	25.5
1533.3	25
1534.35	25
1535.4	24.5
1536.45	22
1537.5	23.5
1538.56	20
1539.61	25.5
1540.66	26
1541.71	25
1542.76	26.5
1543.81	22.5
1544.86	23.5
1545.91	23.5
1546.96	23
1548.01	24
1549.06	25
1550.11	26.5
1551.16	23.5
1552.21	24
1553.26	23.5
1554.31	25.5
1555.36	23
1556.41	27.5
1557.46	24
1558.51	23.5
1559.56	28
1560.6	23.5
1561.65	27.5
1562.7	23
1563.75	28
1564.79	27
1565.84	22.5
1566.89	27
1567.94	25.5
1568.98	25.5
1570.03	25.5
1571.08	25
1572.12	28.5
1573.17	27
1574.22	28.5
1575.26	22
1576.31	23
1577.35	26
1578.4	24
1579.44	25.5
1580.49	27.5
1581.53	26.5
1582.58	25.5
1583.62	23.5
1584.67	21.5
1585.71	26
1586.76	19.5
1587.8	28
1588.84	29
1589.89	26.5
1590.93	22.5
1591.97	20
1593.02	27
1594.06	24.5
1595.1	28.5
1596.14	22.5
1597.19	24.5
1598.23	24
1599.27	24
1600.31	26
1601.36	23
1602.4	27
1603.44	26
1604.48	27
1605.52	27
1606.56	26.5
1607.6	27
1608.64	28
1609.68	28
1610.72	25
1611.76	24.5
1612.81	27.5
1613.84	25.5
1614.88	24
1615.92	26
1616.96	25.5
1618	25.5
1619.04	21
1620.08	24.5
1621.12	26.5
1622.16	24.5
1623.2	25
1624.23	23
1625.27	25.5
1626.31	25.5
1627.35	28.5
1628.39	25.5
1629.42	22
1630.46	25
1631.5	26
1632.53	22.5
1633.57	21.5
1634.61	26
1635.64	25
1636.68	23.5
1637.72	26
1638.75	23
1639.79	31
1640.82	27
1641.86	30
1642.89	25.5
1643.93	25
1644.96	23
1646	26.5
1647.03	27
1648.07	24
1649.1	28
1650.14	24.5
1651.17	25
1652.21	27.5
1653.24	23.5
1654.27	23
1655.31	22
1656.34	22
1657.37	24
1658.41	21
1659.44	25
1660.47	27
1661.5	25.5
1662.53	24
1663.57	25.5
1664.6	24
1665.63	24
1666.66	23.5
1667.69	23
1668.72	25
1669.76	25
1670.79	22.5
1671.82	23.5
1672.85	21
1673.88	26.5
1674.91	25.5
1675.94	27
1676.97	24
1678	26
1679.03	24
1680.06	24
1681.09	23
1682.12	23
1683.15	25
1684.17	26
1685.2	29
1686.23	26
1687.26	26
1688.29	24
1689.32	23.5
1690.34	27
1691.37	28
1692.4	25
1693.43	25
1694.45	25.5
1695.48	28
1696.51	22
1697.54	22
1698.56	22
1699.59	26
1700.61	25
1701.64	27
1702.67	25
1703.69	27
1704.72	28
1705.74	24.5
1706.77	29.5
1707.79	29.5
1708.82	26.5
1709.84	24.5
1710.87	23.5
1711.89	25.5
1712.92	23.5
1713.94	24.5
1714.97	24.5
1715.99	24
1717.01	26
1718.04	28.5
1719.06	25
1720.08	26
1721.11	29
1722.13	27
1723.15	25
1724.18	20.5
1725.2	24.5
1726.22	26
1727.24	24
1728.26	29
1729.29	22.5
1730.31	22
1731.33	21.5
1732.35	23
1733.37	26
1734.39	26.5
1735.41	22.5
1736.43	23
1737.45	21.5
1738.47	27.5
1739.5	21
1740.52	25.5
1741.53	21
1742.55	24.5
1743.57	23
1744.59	25
1745.61	23
1746.63	28.5
1747.65	24
1748.67	28
1749.69	24
1750.71	23
1751.72	21
1752.74	24.5
1753.76	26.5
1754.78	26
1755.8	22.5
1756.81	27
1757.83	26
1758.85	21.5
1759.87	26
1760.88	30.5
1761.9	26
1762.92	24.5
1763.93	23
1764.95	22.5
1765.96	28.5
1766.98	25.5
1768	26
1769.01	25.5
1770.03	27.5
1771.04	22.5
1772.06	30
1773.07	27.5
1774.09	23.5
1775.1	25
1776.12	26
1777.13	25
1778.15	25
1779.16	22.5
1780.17	28.5
1781.19	20.5
1782.2	23
1783.21	21.5
1784.23	27
1785.24	22
1786.25	21
1787.27	27
1788.28	23.5
1789.29	20.5
1790.3	24
1791.32	23
1792.33	23
1793.34	30
1794.35	23
1795.36	23.5
1796.38	24
1797.39	22.5
1798.4	26
1799.41	19
1800.42	23.5
1801.43	25.5
1802.44	24.5
1803.45	24.5
1804.46	24.5
1805.47	26.5
1806.48	24
1807.49	24
1808.5	26.5
1809.51	25
1810.52	26
1811.53	26.5
1812.53	28.5
1813.54	26
1814.55	23.5
1815.56	24.5
1816.57	28
1817.58	24
1818.59	25
1819.59	23
1820.6	28.5
1821.61	25
1822.62	24.5
1823.62	22.5
1824.63	24
1825.64	28
1826.64	23.5
1827.65	25.5
1828.66	23
1829.66	27.5
1830.67	28
1831.67	24.5
1832.68	26.5
1833.69	23
1834.69	25
1835.7	21
1836.7	20
1837.71	24
1838.71	22.5
1839.72	25
1840.72	24
1841.72	21.5
1842.73	25
1843.73	23
1844.74	26
1845.74	27
1846.74	25
1847.75	26
1848.75	25
1849.75	25
1850.76	22.5
1851.76	21
1852.76	31.5
1853.76	21
1854.77	22.5
1855.77	24
1856.77	23.5
1857.77	25
1858.78	22
1859.78	27
1860.78	28.5
1861.78	24
1862.78	21
1863.78	23
1864.78	27
1865.78	25
1866.78	26
1867.78	19
1868.78	26.5
1869.78	25
1870.78	24
1871.78	27
1872.78	26.5
1873.78	26
1874.78	24
1875.78	21.5
1876.78	26
1877.78	23
1878.78	22.5
1879.78	25
1880.77	21.5
1881.77	25.5
1882.77	23
1883.77	25
1884.77	22.5
1885.76	22.5
1886.76	26
1887.76	27.5
1888.75	26
1889.75	24
1890.75	24.5
1891.74	23
1892.74	25
1893.74	24.5
1894.73	22.5
1895.73	21.5
1896.73	27
1897.72	22
1898.72	21
1899.71	21
1900.71	21
1901.7	23.5
1902.7	24
1903.69	24
1904.69	22.5
1905.68	27
1906.68	26
1907.67	25.5
1908.66	26.5
1909.66	27
1910.65	24
1911.64	22
1912.64	25.5
1913.63	25.5
1914.62	24
1915.62	24.5
1916.61	25
1917.6	24.5
1918.6	21
1919.59	24.5
1920.58	23
1921.57	26.5
1922.56	20.5
1923.55	25
1924.55	23.5
1925.54	22.5
1926.53	20.5
1927.52	23.5
1928.51	23.5
1929.5	24.5
1930.49	24.5
1931.48	27
1932.47	27
1933.46	23.5
1934.45	22.5
1935.44	23.5
1936.43	24
1937.42	24
1938.41	24
1939.4	24
1940.39	25
1941.38	22
1942.37	20.5
1943.36	26.5
1944.35	24
1945.33	21
1946.32	23.5
1947.31	26
1948.3	26.5
1949.29	23.5
1950.27	24.5
1951.26	24.5
1952.25	23.5
1953.24	25.5
1954.22	21
1955.21	24.5
1956.2	23
1957.18	27
1958.17	27
1959.16	26.5
1960.14	26.5
1961.13	26
1962.11	25.5
1963.1	25.5
1964.08	24
1965.07	27
1966.05	28
1967.04	24
1968.02	24.5
1969.01	27
1969.99	23
1970.98	18
1971.96	22.5
1972.95	24
1973.93	25
1974.91	25
1975.9	22
1976.88	23.5
1977.86	27.5
1978.85	24
1979.83	25.5
1980.81	22.5
1981.8	25
1982.78	22.5
1983.76	24
1984.74	24
1985.73	22
1986.71	22
1987.69	24.5
1988.67	23
1989.65	24.5
1990.63	23.5
1991.62	22
1992.6	23
1993.58	23
1994.56	23
1995.54	23.5
1996.52	27.5
1997.5	24.5
1998.48	24.5
1999.46	24
2000.44	23
2001.42	23
2002.4	23.5
2003.38	23.5
2004.36	24
2005.34	24
2006.32	22
2007.29	27
2008.27	25
2009.25	26
2010.23	23.5
2011.21	22
2012.19	25.5
2013.17	22
2014.14	24
2015.12	22.5
2016.1	24.5
2017.07	26
2018.05	20.5
2019.03	24.5
2020.01	26.5
2020.98	25
2021.96	23.5
2022.94	21.5
2023.91	23.5
2024.89	23.5
2025.86	24
2026.84	23.5
2027.82	26.5
2028.79	22.5
2029.77	26
2030.74	20
2031.72	26
2032.69	23
2033.67	24
2034.64	21
2035.62	25.5
2036.59	26
2037.56	24
2038.54	26
2039.51	23
2040.49	23.5
2041.46	20
2042.43	23
2043.41	21
2044.38	26
2045.35	25.5
2046.32	25.5
2047.3	23.5
2048.27	26
2049.24	25.5
2050.21	27
2051.19	23.5
2052.16	20.5
2053.13	24
2054.1	26
2055.07	22
2056.05	25.5
2057.02	20.5
2057.99	23
2058.96	22.5
2059.93	22
2060.9	23
2061.87	26.5
2062.84	23
2063.81	24
2064.78	23
2065.75	25
2066.72	18
2067.69	23
2068.66	23.5
2069.63	22.5
2070.6	24.5
2071.57	20
2072.54	25.5
2073.5	25.5
2074.47	26
2075.44	25
2076.41	20.5
2077.38	25
2078.35	22
2079.31	25.5
2080.28	19.5
2081.25	23.5
2082.22	21.5
2083.18	25
2084.15	28
2085.12	20
2086.08	25
2087.05	26.5
2088.02	24.5
2088.98	21.5
2089.95	25
2090.92	23
2091.88	20
2092.85	24
2093.81	24.5
2094.78	20.5
2095.74	21.5
2096.71	24.5
2097.67	19.5
2098.64	21
2099.6	25.5
2100.57	28
2101.53	24
2102.5	21
2103.46	24.5
2104.42	20.5
2105.39	23
2106.35	23
2107.32	21.5
2108.28	19.5
2109.24	24.5
2110.21	26
2111.17	25.5
2112.13	23
2113.09	23.5
2114.06	26
2115.02	19
2115.98	24.5
2116.94	25.5
2117.91	23.5
2118.87	23
2119.83	26
2120.79	23
2121.75	23.5
2122.71	23
2123.67	21.5
2124.63	24
2125.6	23.5
2126.56	23.5
2127.52	24.5
2128.48	18.5
2129.44	20.5
2130.4	21
2131.36	22
2132.32	20.5
2133.28	24.5
2134.23	25
2135.19	23.5
2136.15	25
2137.11	23
2138.07	20
2139.03	24
2139.99	23.5
2140.95	24
2141.9	24.5
2142.86	22.9818
2143.82	23.4147
2144.78	22.0359
2145.74	18.269
2146.69	20.0882
2147.65	22.5058
2148.61	20.0079
2149.57	21.8286
2150.52	23.0918
2151.48	21.1334
2152.44	23.5605
2153.39	23.2322
2154.35	18.612
2155.31	21.809
2156.26	22.7594
2157.22	24.0053
2158.17	22.2248
2159.13	23.9218
2160.08	23.6186
2161.04	24.1891
2161.99	21.2725
2162.95	20.8131
2163.91	21.3478
2164.86	24.2296
2165.81	21.4517
2166.77	23.3809
2167.72	20.124
2168.68	21.8092
2169.63	20.6659
2170.58	22.2768
2171.54	25.7597
2172.49	24.5436
2173.45	23.2108
2174.4	23.3708
2175.35	23.0829
2176.31	21.517
2177.26	23.0934
2178.21	21.386
2179.16	24.8289
2180.12	23.073
2181.07	23.3799
2182.02	20.6625
2182.97	22.0037
2183.92	22.1052
2184.88	20.0702
2185.83	24.4425
2186.78	21.7044
2187.73	20.0206
2188.68	24.1392
2189.63	23.0961
2190.58	21.8029
2191.53	21.6967
2192.49	19.989
2193.43	21.2042
2194.39	22.6174
2195.34	21.6154
2196.28	22.8977
2197.24	21.2833
2198.19	24.2362
2199.13	21.7946
2200.08	23.2256
2201.03	20.6839
2201.98	24.5997
2202.93	23.0537
2203.88	22.6166
2204.83	22.9855
2205.78	21.0089
2206.73	23.743
2207.67	24.2195
2208.62	24.0482
2209.57	21.5213
2210.52	22.8299
2211.47	22.5304
2212.41	23.7954
2213.36	22.7401
2214.31	19.7988
2215.26	19.6623
2216.2	20.7348
2217.15	21.7971
2218.1	22.1845
2219.04	21.1592
2219.99	23.9538
2220.93	23.7194
2221.88	21.3582
2222.83	24.2699
2223.77	21.2408
2224.72	23.4066
2225.66	23.414
2226.61	20.9313
2227.55	22.9048
2228.5	20.9779
2229.44	20.6971
2230.39	23.8289
2231.33	25.723
2232.28	21.8485
2233.22	20.6092
2234.17	21.3565
2235.11	20.0926
2236.06	21.8869
2237	22.517
2237.94	25.5098
2238.89	24.9033
2239.83	24.1251
2240.06	24
2241.01	24
2241.96	27
2242.9	21.5
2243.85	23
2244.8	23
2245.75	25
2246.69	22.5
2247.64	19.5
2248.59	23.5
2249.53	20.5
2250.48	23
2251.43	25.5
2252.37	24.5
2253.32	22
2254.27	22.5
2255.21	26
2256.16	21.5
2257.1	23
2258.05	22
2259	23.5
2259.94	25
2260.89	23.5
2261.83	21
2262.78	21.5
2263.72	23
2264.67	24
2265.61	21.5
2266.56	19.5
2267.5	27
2268.44	24.5
2269.39	22
2270.33	23
2271.27	25
2272.22	21.5
2273.16	24.5
2274.1	23.5
2275.05	25
2275.99	22
2276.93	19
2277.88	22.5
2278.82	18
2279.76	20
2280.7	23.5
2281.65	21.5
2282.59	24
2283.53	22
2284.47	27.5
2285.41	25
2286.35	25.5
2287.29	17.5
2288.24	22.5
2289.18	20.5
2290.12	26.5
2291.06	25
2292	24.5
2292.94	22
2293.88	20.5
2294.82	24
2295.76	22
2296.7	21
2297.64	20
2298.58	22.5
2299.52	24.5
2300.46	25
2301.4	21.5
2302.34	25.5
2303.28	19.5
2304.21	20.5
2305.15	24.5
2306.09	18.5
2307.03	23
2307.97	22
2308.91	22
2309.84	21
2310.78	23
2311.72	26
2312.66	22
2313.59	17.5
2314.53	26
2315.47	22.5
2316.4	22
2317.34	21
2318.28	21.5
2319.22	23
2320.15	22
2321.09	22
2322.02	23.5
2322.96	24
2323.89	27.5
2324.83	25
2325.77	23.5
2326.7	21.5
2327.64	23.5
2328.57	19.5
2329.51	25
2330.44	19.5
2331.38	25.5
2332.31	22
2333.25	21.5
2334.18	27.5
2335.11	25
2336.05	22.5
2336.98	19.5
2337.92	26
2338.85	23.5
2339.78	24
2340.72	22.5
2341.65	22
2342.58	24.5
2343.52	27.5
2344.45	21.5
2345.38	21.5
2346.31	22
2347.25	26
2348.18	22.5
2349.11	23
2350.04	18
2350.97	24
2351.9	25.5
2352.84	21.5
2353.77	26.5
2354.7	25
2355.63	26
2356.56	22.5
2357.49	22.5
2358.42	22
2359.35	24.5
2360.28	24
2361.21	24
2362.14	23
2363.07	25.5
2364	23.5
2364.93	24
2365.86	23
2366.79	21
2367.72	21.5
2368.65	25.5
2369.58	24.5
2370.51	22
2371.44	24
2372.36	22.5
2373.29	21
2374.22	23.5
2375.15	26
2376.08	22
2377.01	23.5
2377.93	25
2378.86	23.5
2379.79	21.5
2380.72	23.5
2381.64	20
2382.57	26
2383.5	27
2384.42	23.5
2385.35	22
2386.28	23
2387.2	23.5
2388.13	22
2389.06	20
2389.98	21
2390.91	22.5
2391.83	28
2392.76	22
2393.69	23.5
2394.61	24
2395.54	22
2396.46	19.5
2397.39	25
2398.31	24
2399.23	20.5
2400.16	25
2401.08	26
2402.01	26.5
2402.93	21
2403.86	25
2404.78	22
2405.7	22.5
2406.63	21
2407.55	21
2408.47	23
2409.4	19
2410.32	24.5
2411.24	23
2412.17	25.5
2413.09	22
2414.01	24.5
2414.93	19.5
2415.85	23
2416.78	24.5
2417.7	25
2418.62	25
2419.54	23.5
2420.46	25
2421.38	21.5
2422.31	27
2423.23	28.5
2424.15	22
2425.07	23
2425.99	24
2426.91	22.5
2427.83	14
2428.75	23
2429.67	27.5
2430.59	27
2431.51	20
2432.43	25.5
2433.35	22.5
2434.27	27
2435.19	26
2436.11	23
2437.03	26
2437.94	24.5
2438.86	23.5
2439.78	22
2440.7	23.5
2441.62	25
2442.54	22.5
2443.46	25
2444.37	24.5
2445.29	26.5
2446.21	22.5
2447.13	22.5
2448.04	22.5
2448.96	21.5
2449.88	24
2450.8	21
2451.71	23.5
2452.63	26.5
2453.55	20
2454.46	21.5
2455.38	24
2456.29	21
2457.21	25
2458.13	25
2459.04	24.5
2459.96	24
2460.87	23
2461.79	23.5
2462.7	28
2463.62	24
2464.53	22
2465.45	28
2466.36	23
2467.28	23
2468.19	25
2469.11	24
2470.02	16.5
2470.93	23
2471.85	26
2472.76	26.5
2473.67	21
2474.59	25
2475.5	25.5
2476.42	24.5
2477.33	24.5
2478.24	23.5
2479.15	23.5
2480.07	23
2480.98	22
2481.89	24.5
2482.8	21
2483.72	27
2484.63	23
2485.54	26
2486.45	20.5
2487.36	26
2488.27	25
2489.19	24.5
2490.1	25
2491.01	23
2491.92	26
2492.83	23
2493.74	26
2494.65	26.5
2495.56	22
2496.47	22.5
2497.38	23
2498.29	22.5
2499.2	23.5
2500.11	26
2501.02	23.5
2501.93	26
2502.84	29.5
2503.75	23.5
2504.66	24
2505.57	25.5
2506.47	24.5
2507.38	23.5
2508.29	23.5
2509.2	22
2510.11	26.5
2511.02	24
2511.92	22
2512.83	22
2513.74	23
2514.65	22
2515.55	24.5
2516.46	21
2517.37	24.5
2518.28	22
2519.18	21.5
2520.09	23.5
2521	20.5
2521.9	25.5
2522.81	23
2523.72	24.5
2524.62	23
2525.53	24.5
2526.43	26
2527.34	22
2528.24	25.5
2529.15	25
2530.06	27
2530.96	23.5
2531.87	26
2532.77	23
2533.68	22.5
2534.58	25.5
2535.48	25.5
2536.39	26.5
2537.29	26
2538.2	22.5
2539.1	26
2540	22
2540.91	25.5
2541.81	23
2542.72	24
2543.62	27
2544.52	25
2545.42	26.5
2546.33	23.5
2547.23	22.5
2548.13	22.5
2549.04	22.5
2549.94	21
2550.84	21.5
2551.74	25
2552.64	25.5
2553.55	25
2554.45	26.5
2555.35	25
2556.25	21
2557.15	24
2558.05	23.5
2558.95	23
2559.85	26.5
2560.76	25
2561.66	24.5
2562.56	28.5
2563.46	25.5
2564.36	25.5
2565.26	22
2566.16	21.5
2567.06	22
2567.96	25.5
2568.86	25
2569.76	23
2570.66	24.5
2571.55	23
2572.45	25
2573.35	22.5
2574.25	24
2575.15	23.5
2576.05	25
2576.95	25
2577.84	25.5
2578.74	23.5
2579.64	26
2580.54	22.5
2581.44	23
2582.33	24.5
2583.23	25
2584.13	25
2585.03	29
2585.92	21.5
2586.82	24.5
2587.72	18
2588.61	26.5
2589.51	23.5
2590.41	27
2591.3	24
2592.2	22.5
2593.09	24
2593.99	24
2594.89	23.5
2595.78	26
2596.68	23
2597.57	24
2598.47	27.5
2599.36	28.5
2600.26	24
2601.15	25
2602.05	27
2602.94	24.5
2603.84	23
2604.73	26
2605.63	25
2606.52	25
2607.41	24.5
2608.31	23.5
2609.2	22
2610.09	22.5
2610.99	29
2611.88	24.5
2612.77	25.5
2613.67	24
2614.56	26.5
2615.45	24
2616.35	24
2617.24	19.5
2618.13	26
2619.02	23
2619.91	25.5
2620.81	23
2621.7	23.5
2622.59	21.5
2623.48	23.5
2624.37	23
2625.26	24.5
2626.15	25
2627.05	24
2627.94	23
2628.83	27.5
2629.72	26
2630.61	23.5
2631.5	22.5
2632.39	23
2633.28	22
2634.17	24
2635.06	24.5
2635.95	26.5
2636.84	21.5
2637.73	25.5
2638.62	22
2639.51	21
2640.4	20.5
2641.28	24
2642.17	25
2643.06	25
2643.95	24.5
2644.84	26
2645.73	25
2646.62	22
2647.5	22.5
2648.39	24.5
2649.28	23
2650.17	21
2651.05	26
2651.94	25
2652.83	21
2653.72	27.5
2654.6	26
2655.49	24
2656.38	24
2657.26	25.5
2658.15	26.5
2659.04	25
2659.92	20.5
2660.81	24
2661.69	24.5
2662.58	25
2663.47	25
2664.35	23.5
2665.24	30
2666.12	26.5
2667.01	24
2667.89	21.5
2668.78	24
2669.66	24.5
2670.55	23.5
2671.43	23.5
2672.32	26
2673.2	29
2674.08	22
2674.97	22
2675.85	21.5
2676.74	25
2677.62	24
2678.5	24
2679.39	18
2680.27	29
2681.15	24
2682.04	25.5
2682.92	22.5
2683.8	24
2684.68	19.5
2685.57	23.5
2686.45	21
2687.33	23
2688.21	24
2689.09	24
2689.98	26.5
2690.86	23
2691.74	21.5
2692.62	23
2693.5	24.5
2694.38	24.5
2695.27	22
2696.15	27
2697.03	25.5
2697.91	24
2698.79	25
2699.67	22.5
2700.55	23
2701.43	23
2702.31	21
2703.19	24.5
2704.07	24.5
2704.95	25
2705.83	17.5
2706.71	27
2707.59	23
2708.47	26
2709.34	21
2710.22	23
2711.1	23.5
2711.98	22
2712.86	25
2713.74	22.5
2714.62	24.5
2715.49	25
2716.37	28
2717.25	23
2718.13	23
2719.01	25.5
2719.88	26.5
2720.76	27
2721.64	21.5
2722.51	25
2723.39	24
2724.27	22.5
2725.14	20
2726.02	22.5
2726.9	27
2727.77	29.5
2728.65	23
2729.53	20
2730.4	22
2731.28	21
2732.15	26
2733.03	25
2733.91	24.5
2734.78	24
2735.66	23
2736.53	24
2737.41	24.5
2738.28	23
2739.16	25
2740.03	24
2740.9	27
2741.78	21.5
2742.65	22.5
2743.53	20
2744.4	20.5
2745.27	24
2746.15	26
2747.02	26
2747.89	22.5
2748.77	23.5
2749.64	29
2750.51	22.5
2751.39	24.5
2752.26	25
2753.13	23.5
2754.01	23
2754.88	23.5
2755.75	26
2756.62	23
2757.49	26.5
2758.37	26
2759.24	25
2760.11	25
2760.98	23
2761.85	24.5
2762.72	21.5
2763.59	22
2764.46	25
2765.34	27
2766.21	26.5
2767.08	24.5
2767.95	24
2768.82	23.5
2769.69	26
2770.56	23.5
2771.43	23.5
2772.3	23
2773.17	26
2774.04	25.5
2774.91	26.5
2775.78	26
2776.65	22
2777.51	24.5
2778.38	22
2779.25	25
2780.12	27
2780.99	20
2781.86	23
2782.73	22
2783.59	19
2784.46	25
2785.33	25.5
2786.2	18.5
2787.07	22
2787.93	24.5
2788.8	25
2789.67	23
2790.54	23
2791.4	24
2792.27	25.5
2793.14	23
2794	20.5
2794.87	24
2795.74	25
2796.6	26
2797.47	25.5
2798.34	24
2799.2	22
2800.07	25
2800.93	24.25
2801.8	22.5
2802.66	26.5
2803.53	23.5
2804.39	27
2805.26	26.5
2806.12	26
2806.99	24.5
2807.85	22
2808.72	22
2809.58	26
2810.45	22
2811.31	26.5
2812.18	23.5
2813.04	24
2813.9	26.5
2814.77	27.5
2815.63	24
2816.49	24.5
2817.36	23
2818.22	25
2819.08	26.5
2819.95	25
2820.81	22
2821.67	19
2822.53	23
2823.4	27
2824.26	23
2825.12	23.5
2825.98	20
2826.84	25
2827.71	24
2828.57	23.5
2829.43	26
2830.29	27
2831.15	23.5
2832.01	21.5
2832.88	29
2833.74	25
2834.6	28
2835.46	22
2836.32	23.5
2837.18	24
2838.04	18.5
2838.9	22
2839.76	23.5
2840.62	26.5
2841.48	25
2842.34	23
2843.2	22.5
2844.06	24
2844.92	22.5
2845.78	25.5
2846.63	25
2847.49	23.5
2848.35	27
2849.21	26.5
2850.07	23
2850.93	21
2851.79	26
2852.64	23
2853.5	24.5
2854.36	23
2855.22	25.5
2856.08	25.5
2856.93	25
2857.79	26
2858.65	24.5
2859.51	25
2860.36	25.5
2861.22	23.5
2862.08	21.5
2862.93	24
2863.79	26
2864.65	24.5
2865.5	25.5
2866.36	23
2867.22	25
2868.07	24
2868.93	26.5
2869.78	26
2870.64	23.5
2871.49	27.5
2872.35	25.5
2873.21	27.5
2874.06	22.5
2874.91	26.5
2875.77	20
2876.62	25.5
2877.48	26.5
2878.33	28
2879.19	24.5
2880.04	22.5
2880.9	25
2881.75	25
2882.6	26.5
2883.46	27.5
2884.31	27
2885.17	29
2886.02	29
2886.87	29
2887.73	29.5
2888.58	29.5
2889.43	24.5
2890.28	28
2891.14	28.5
2891.99	33
2892.84	30.5
2893.69	29.5
2894.55	28
2895.4	33.5
2896.25	37
2897.1	35
2897.95	35
2898.8	35
2899.66	36
2900.51	35
2901.36	39
2902.21	35
2903.06	40
2903.91	43.5
2904.76	41
2905.61	42.5
2906.46	39.5
2907.31	40.5
2908.16	37.5
2909.01	40.5
2909.86	39
2910.71	34.5
2911.56	32
2912.41	33
2913.26	34.5
2914.11	35.5
2914.96	30
2915.81	29
2916.66	31
2917.51	29.5
2918.36	27.5
2919.2	27
2920.05	27
2920.9	30
2921.75	28
2922.6	28
2923.45	25
2924.29	25.5
2925.14	25
2925.99	25
2926.84	24.5
2927.68	22.5
2928.53	21.5
2929.38	25.5
2930.23	25
2931.07	24
2931.92	24
2932.77	23
2933.61	23
2934.46	25
2935.3	24
2936.15	21
2937	25.5
2937.84	22.5
2938.69	21.5
2939.53	23
2940.38	22
2941.23	21
2942.07	23
2942.92	25
2943.76	27
2944.61	24
2945.45	24
2946.3	20
2947.14	27
2947.98	27
2948.83	27
2949.67	27
2950.52	27
2951.36	28
2952.2	28.5
2953.05	22.5
2953.89	26
2954.74	25
2955.58	26
2956.42	24.5
2957.27	27.5
2958.11	29
2958.95	22
2959.79	29.5
2960.64	29.5
2961.48	27
2962.32	31
2963.16	33
2964.01	33.5
2964.85	29.5
2965.69	32.5
2966.53	31
2967.37	28.5
2968.21	33.5
2969.06	25
2969.9	26
2970.74	30
2971.58	25.483
2972.42	26.4813
2973.26	29.0038
2974.1	27.676
2974.94	23.6189
2975.78	23.0855
2976.62	24.1723
2977.46	26.7416
2978.3	27.6602
2979.14	25.1503
2979.98	25.48
2980.82	21.8164
2981.66	22.3326
2982.5	23.0086
2983.34	23.2499
2984.18	22.8762
2985.02	24.3267
2985.86	23.675
2986.7	22.9482
2987.54	24.2721
2988.38	23.681
2989.21	24.6962
2990.05	24.038
2990.89	22.1549
2991.73	22.9975
2992.57	24.7524
2993.41	25.0804
2994.24	23.3616
2995.08	23.2685
2995.92	27.5022
2996.76	23.9102
2997.59	22.8149
2998.43	20.3542
2999.27	21.8901
3000.1	21.8298
3000.94	24.5547
3001.78	21.9204
3002.61	24.6456
3003.45	20.276
3004.29	21.6261
3005.12	22.0622
3005.96	21.1633
3006.8	22.5911
3007.63	23.3107
3008.47	22.6444
3009.3	23.3578
3010.14	20.9316
3010.97	21.3207
3011.81	24.367
3012.64	22.1654
3013.48	21.9786
3014.31	23.3555
3015.15	22.3018
3015.98	22.35
3016.82	23.058
3017.65	20.9464
3018.49	20.2916
3019.32	20.7021
3020.16	23.3884
3020.99	20.7202
3021.82	20.5149
3022.66	22.192
3023.49	24.3272
3024.32	21.6711
3025.16	22.5085
3025.99	21.5021
3026.82	22.9329
3027.66	25.3717
3028.49	23.7654
3029.32	22.9604
3030.16	24.482
3030.99	22.5211
3031.82	21.6845
3032.65	19.7853
3033.49	22.5761
3034.32	23.9678
3035.15	23.1751
3035.98	20.3315
3036.81	21.6633
3037.64	21.8091
3038.48	23.3607
3039.31	24.4171
3040.14	22.5304
3040.97	20.589
3041.8	20.1796
3042.63	21.9995
3043.46	24.3149
3044.29	21.5389
3045.12	22.2051
3045.95	24.351
3046.78	23.8648
3047.61	23.8893
3048.44	21.7653
3049.27	22.2976
3050.1	24.0967
3050.93	24.0691
3051.76	22.1157
3052.59	21.8184
3053.42	24.2154
3054.25	23.017
3055.08	22.4337
3055.91	20.2345
3056.74	20.2802
3057.26	24
3058.09	23
3058.92	21
3059.76	22
3060.59	20
3061.42	24
3062.26	23
3063.09	22
3063.92	22
3064.75	24
3065.59	22.5
3066.42	21.5
3067.25	21.5
3068.08	19
3068.91	20
3069.74	19.5
3070.58	21
3071.41	19
3072.24	25.5
3073.07	21.5
3073.9	19
3074.73	21
3075.56	21
3076.39	24
3077.22	23.5
3078.05	20.5
3078.88	23
3079.71	17
3080.55	22
3081.38	21
3082.2	24.5
3083.03	23.5
3083.86	22
3084.69	24
3085.52	19.5
3086.35	21
3087.18	21.5
3088.01	18.5
3088.84	22
3089.67	22.5
3090.5	20.5
3091.33	24.5
3092.15	23.5
3092.98	19.5
3093.81	22.5
3094.64	24.5
3095.47	21
3096.29	22
3097.12	21
3097.95	21.5
3098.78	22.5
3099.6	21.5
3100.43	24
3101.26	20.5
3102.09	23.5
3102.91	28.5
3103.74	23.5
3104.57	24.5
3105.39	25
3106.22	24
3107.05	20
3107.87	22.5
3108.7	22
3109.52	26
3110.35	25
3111.18	21.5
3112	25
3112.83	25
3113.65	23
3114.48	23
3115.3	20.5
3116.13	20
3116.95	22
3117.78	22
3118.6	25.5
3119.43	27.5
3120.25	24
3121.08	24
3121.9	21.5
3122.73	18
3123.55	18
3124.37	22.5
3125.2	22
3126.02	22
3126.84	20
3127.67	24
3128.49	26.5
3129.31	21.5
3130.14	26
3130.96	24.5
3131.78	21.5
3132.61	23
3133.43	24
3134.25	24
3135.07	25.5
3135.9	26
3136.72	27.5
3137.54	24
3138.36	26
3139.18	24
3140.01	24
3140.83	23
3141.65	25.5
3142.47	21.5
3143.29	20
3144.11	20
3144.93	21.5
3145.75	22
3146.58	20.5
3147.4	21.5
3148.22	22
3149.04	25
3149.86	21.5
3150.68	19
3151.5	27.5
3152.32	23
3153.14	22.5
3153.96	25
3154.78	22
3155.6	23.5
3156.42	20
3157.23	22
3158.05	23.5
3158.87	23
3159.69	23
3160.51	25
3161.33	22.5
3162.15	19.5
3162.97	23
3163.79	20.5
3164.6	26.5
3165.42	27
3166.24	23.5
3167.06	26
3167.88	22.5
3168.69	25
3169.51	22.5
3170.33	25
3171.15	26.5
3171.96	27
3172.78	20
3173.6	24.5
3174.41	19
3175.23	22
3176.05	24
3176.86	24.5
3177.68	23
3178.5	19.5
3179.31	24.5
3180.13	23.5
3180.95	22.5
3181.76	26
3182.58	21.5
3183.39	22.5
3184.21	24
3185.02	22
3185.84	25
3186.65	22.5
3187.47	21.5
3188.28	21.5
3189.1	23.5
3189.91	21
3190.73	21
3191.54	22
3192.36	22
3193.17	23
3193.99	22
3194.8	24.5
3195.61	20.5
3196.43	21.5
3197.24	24
3198.05	24
3198.87	24.5
3199.68	23.5
3200.49	23
3201.31	22
3202.12	27.5
3202.93	26.5
3203.75	26
3204.56	24
3205.37	22.5
3206.18	18
3207	24
3207.81	23
3208.62	24.5
3209.43	26
3210.24	22
3211.06	22.5
3211.87	24.5
3212.68	23
3213.49	24.5
3214.3	22
3215.11	21.5
3215.92	21
3216.74	24
3217.55	21
3218.36	26
3219.17	22.5
3219.98	24
3220.79	23
3221.6	25
3222.41	22
3223.22	20.5
3224.03	25
3224.84	27.5
3225.65	22
3226.46	24.5
3227.27	26.5
3228.08	21
3228.89	21
3229.7	30
3230.5	21.5
3231.31	22.5
3232.12	24.5
3232.93	23
3233.74	26
3234.55	22
3235.36	23.5
3236.16	25
3236.97	24
3237.78	21
3238.59	21
3239.4	24.5
3240.2	23
3241.01	19
3241.82	20
3242.63	24.5
3243.43	23
3244.24	22
3245.05	23
3245.86	25.5
3246.66	24.5
3247.47	24.5
3248.28	24
3249.08	22
3249.89	23
3250.69	23
3251.5	25
3252.31	24
3253.11	28
3253.92	21
3254.72	24
3255.53	27.5
3256.34	25
3257.14	24
3257.95	24
3258.75	22
3259.56	22
3260.36	26.5
3261.17	23
3261.97	18.5
3262.77	24.5
3263.58	22
3264.38	24
3265.19	21
3265.99	26
3266.8	21.5
3267.6	20
3268.4	25.5
3269.21	25
3270.01	21.5
3270.81	22
3271.62	21
3272.42	24
3273.22	24
3274.03	20.5
3274.83	23
3275.63	22
3276.43	21.5
3277.24	20.5
3278.04	23
3278.84	23
3279.64	24.5
3280.45	25
3281.25	25.5
3282.05	23
3282.85	21.5
3283.65	24
3284.46	25.5
3285.26	21.5
3286.06	21.5
3286.86	24.5
3287.66	23
3288.46	23.5
3289.26	23
3290.06	22
3290.86	22
3291.66	21
3292.46	23
3293.26	22
3294.06	23.5
3294.86	25
3295.66	21
3296.46	28
3297.26	22
3298.06	23
3298.86	20
3299.66	23.5
3300.46	24
3301.26	20
3302.06	22
3302.86	19.5
3303.66	22.5
3304.46	25.5
3305.26	27
3306.05	24
3306.85	23
3307.65	27
3308.45	23
3309.25	24
3310.04	22
3310.84	28.5
3311.64	23.5
3312.44	28
3313.24	20
3314.03	26.5
3314.83	28.5
3315.63	27
3316.42	24.5
3317.22	25
3318.02	24
3318.82	24.5
3319.61	24
3320.41	23.5
3321.2	25.5
3322	27.5
3322.8	26.5
3323.59	22.5
3324.39	20
3325.19	24.5
3325.98	27
3326.78	24
3327.57	23
3328.37	22
3329.16	24.5
3329.96	26
3330.75	21
3331.55	20.5
3332.34	24
3333.14	24
3333.93	23.5
3334.73	22.5
3335.52	24
3336.32	22
3337.11	23.5
3337.9	25
3338.7	25
3339.49	20.5
3340.29	24.5
3341.08	24
3341.87	25.5
3342.67	21
3343.46	22
3344.25	25
3345.05	23
3345.84	23.5
3346.63	21
3347.42	24
3348.22	25.5
3349.01	27
3349.8	20
3350.59	22.5
3351.39	21
3352.18	22.5
3352.97	21
3353.76	24
3354.55	23
3355.35	22
3356.14	27.5
3356.93	23.5
3357.72	23.5
3358.51	22
3359.3	21.5
3360.09	26
3360.88	23
3361.67	22.5
3362.47	21.5
3363.26	23.5
3364.05	21
3364.84	25
3365.63	23
3366.42	21.5
3367.21	21.5
3368	24.5
3368.79	25.5
3369.58	24
3370.37	23.5
3371.16	23.5
3371.95	26
3372.73	24
3373.52	25
3374.31	26
3375.1	24
3375.89	25.5
3376.68	21.5
3377.47	24.5
3378.26	22.5
3379.04	28
3379.83	21.5
3380.62	25.5
3381.41	24.5
3382.2	21.5
3382.98	19.5
3383.77	25.5
3384.56	23.5
3385.35	21
3386.14	23.5
3386.92	22.5
3387.71	26.5
3388.5	26
3389.28	21
3390.07	26
3390.86	19.5
3391.64	20.5
3392.43	25
3393.22	21.5
3394	24.5
3394.79	25.5
3395.58	22
3396.36	23
3397.15	24.5
3397.93	24.5
3398.72	22.5
3399.5	20.5
3400.29	24.5
3401.07	24.5
3401.86	23
3402.65	24
3403.43	25
3404.22	26.5
3405	26
3405.79	20.5
3406.57	20
3407.35	26
3408.14	22.5
3408.92	23
3409.71	21
3410.49	22
3411.27	24
3412.06	19.5
3412.84	23.5
3413.63	22.5
3414.41	19.5
3415.19	22.5
3415.98	25.5
3416.76	22
3417.54	22
3418.32	26
3419.11	25.5
3419.89	28
3420.67	24
3421.46	26.5
3422.24	23
3423.02	22.5
3423.8	25.5
3424.58	22
3425.37	21
3426.15	21
3426.93	18.5
3427.71	23.5
3428.49	25
3429.27	25
3430.06	22
3430.84	22
3431.62	24.5
3432.4	25
3433.18	23.5
3433.96	18
3434.74	25
3435.52	24
3436.3	20
3437.08	24
3437.86	21
3438.64	24
3439.42	27
3440.2	27
3440.98	25.5
3441.76	22.5
3442.54	24
3443.32	25
3444.1	22
3444.88	21
3445.66	25
3446.44	19
3447.22	27.5
3448	23
3448.78	23.5
3449.55	25.5
3450.33	26
3451.11	24
3451.89	16
3452.67	27
3453.45	24
3454.22	24
3455	23
3455.78	21.5
3456.56	24.5
3457.33	22
3458.11	23.5
3458.89	23
3459.67	24.5
3460.44	23.5
3461.22	24
3462	24.5
3462.77	26.5
3463.55	25
3464.33	24.5
3465.1	22.5
3465.88	24.5
3466.66	25
3467.43	22
3468.21	23.5
3468.99	22.5
3469.76	25
3470.54	27
3471.31	23.5
3472.09	25
3472.86	20
3473.64	24
3474.41	25
3475.19	24
3475.96	23.5
3476.74	22.5
3477.51	22
3478.29	20
3479.06	25.5
3479.84	23
3480.61	24
3481.39	20.5
3482.16	22
3482.93	21
3483.71	20
3484.48	23.5
3485.26	27
3486.03	24
3486.8	23
3487.58	25
3488.35	28
3489.12	19
3489.9	25.5
3490.67	21
3491.44	22.5
3492.21	22
3492.99	26.5
3493.76	28
3494.53	24.5
3495.3	22.5
3496.08	22.5
3496.85	23.5
3497.62	24.5
3498.39	22
3499.16	25
3499.94	26
