#Acq. time (s)=	5
#Accumulations=	5
#Range (cm-ｹ)=	100...3500
#Windows=	4
#Autofocus=	Off
#AutoExposure=	Off
#Spike filter=	Multiple accum.
#Delay time (s)=	0
#Binning=	1
#Readout mode=	Signal
#DeNoise=	Off
#ICS correction=	Off
#Dark correction=	Off
#Inst. Process=	Off
#Instrument=	LabRAM HR Evol
#Detector=	Syncerity OE
#Objective=	x100_VIS
#Grating=	600 (500nm)
#ND Filter=	25%
#Laser=	633nm_Edge
#Hole=	100.021
#Range=	Visible
#Project=	verificaciones
#Sample=	a3
#Site=	lined
#Title=	bolusa3lined
#Remark=	
#Date=	12.01.2026 16:16
#Acquired=	12.01.2026 16:16:02
100.666	23
101.95	25.5
103.233	29
104.516	30
105.799	33.5
107.083	26.5
108.365	29
109.648	23.5
110.93	26.5
112.212	28
113.493	29
114.775	31
116.056	27.5
117.337	26.5
118.618	29
119.898	24.5
121.178	27.5
122.459	27.5
123.739	29
125.018	25.5
126.298	24
127.577	27
128.856	27
130.135	25
131.414	31
132.692	24
133.971	26
135.249	28
136.525	31
137.803	29
139.08	28.5
140.357	28.5
141.634	32
142.911	31
144.188	27.5
145.464	31.5
146.74	26
148.015	28
149.291	29
150.566	32.5
151.842	33.5
153.117	33
154.392	34
155.665	28
156.939	33.5
158.214	29
159.488	33
160.76	31
162.034	28.5
163.307	31.5
164.581	31
165.854	31
167.125	33
168.398	28.5
169.67	32
170.941	33
172.213	28.5
173.485	30
174.756	30.5
176.026	29.5
177.298	34.5
178.569	31
179.838	31.5
181.109	31
182.379	32.5
183.648	31.5
184.918	29
186.187	25
187.455	34.5
188.725	31
189.992	31.5
191.261	30
192.53	34
193.797	30
195.065	32
196.332	31
197.6	31
198.866	32
200.134	28
201.401	27
202.667	31
203.933	31
205.199	32.5
206.465	30
207.73	32.5
208.996	27.5
210.26	32.5
211.526	29
212.79	31
214.055	30
215.319	29
216.582	29
217.847	30
219.11	33
220.374	26
221.636	30
222.9	30.5
224.162	27
225.424	27.5
226.687	27.5
227.949	26
229.212	25.5
230.473	29.5
231.734	29
232.996	31
234.256	26
235.517	31
236.778	24.5
238.038	22.5
239.298	25.5
240.559	32
241.818	26.5
243.077	27
244.337	27
245.596	29.5
246.854	30.5
248.113	27.5
249.372	25.5
250.63	29
251.887	29.5
253.145	28.5
254.404	27
255.661	23.5
256.917	24
258.174	25.5
259.432	26.5
260.688	27
261.944	28.5
263.2	27.5
264.456	26
265.711	29
266.968	31
268.223	26
269.477	27
270.732	29
271.986	29
273.24	24
274.494	26.5
275.748	26.5
277.003	31
278.257	27.5
279.51	26.5
280.763	25
282.015	24
283.268	30
284.52	30.5
285.773	28.5
287.024	26
288.276	27
289.528	27.5
290.779	27.5
292.03	26
293.281	24
294.532	28
295.782	26
297.033	27.5
298.283	28
299.533	29.5
300.783	26.5
302.032	26
303.281	27.5
304.531	26.5
305.78	27
307.028	25.5
308.275	34.5
309.524	28
310.772	26
312.02	28
313.267	29.5
314.515	25
315.762	25.5
317.009	24.5
318.255	25.5
319.501	30
320.748	27
321.994	26
323.24	31
324.486	27
325.731	26
326.976	31.5
328.221	26.5
329.466	25.5
330.71	24.5
331.955	29
333.199	25.5
334.443	25.5
335.686	26
336.93	29.5
338.174	28.5
339.417	22
340.659	29.5
341.902	24
343.145	27.5
344.386	28
345.629	26
346.871	24
348.112	22
349.354	28
350.595	28
351.836	24
353.077	26
354.318	29.5
355.557	25
356.798	24
358.037	28
359.277	30.5
360.518	27.5
361.756	31
362.996	25
364.234	27.5
365.473	29
366.711	26
367.95	25.5
369.187	26.5
370.426	24.5
371.662	19.5
372.901	26
374.137	28.5
375.375	25.5
376.611	26
377.848	27
379.084	28
380.321	30.5
381.556	31.5
382.793	27.5
384.027	27.5
385.264	31
386.498	28
387.732	22.5
388.968	27
390.202	28
391.437	27.5
392.671	27
393.904	30
395.138	28
396.371	26
397.604	26.5
398.838	29.5
400.07	28
401.302	30.5
402.536	25
403.768	26.5
404.999	27
406.232	26
407.463	28
408.694	27
409.925	25
411.157	27.5
412.387	29
413.617	33
414.847	30.5
416.078	27
417.308	25
418.537	27.5
419.767	29.5
420.997	26.5
422.226	27.5
423.454	23
424.683	22
425.911	26.5
427.139	25
428.368	28
429.596	28
430.823	26.5
432.05	28
433.277	28.5
434.504	24.5
435.731	28
436.957	26.5
438.185	27
439.411	26.5
440.637	25
441.862	27
443.088	28
444.313	26
445.538	26.5
446.763	28
447.988	27
449.212	28
450.436	30
451.661	26
452.884	26
454.108	30.5
455.332	27.5
456.555	30.5
457.778	29
459.001	25.5
460.224	27
461.446	25
462.668	29
463.891	28.5
465.111	30.5
466.333	29
467.554	27.5
468.776	32.5
469.997	29
471.218	27
472.439	29
473.659	32.5
474.878	33
476.098	30
477.318	28.5
478.538	34.5
479.758	35.5
480.977	34.5
482.195	37
483.414	39
484.633	38
485.851	42
487.07	41
488.287	38.5
489.505	40.5
490.723	42.5
491.94	39.5
493.156	37
494.374	37
495.591	37
496.806	36.5
498.023	34
499.239	31
500.456	35.5
501.67	35
502.886	32.5
504.102	30
505.316	29.5
506.531	31
507.745	29
508.96	29.5
510.175	29
511.388	30.5
512.602	27
513.815	33
515.029	32
516.243	29
517.455	29
518.669	30.5
519.88	27.5
521.093	28
522.305	30
523.518	27.5
524.729	29.5
525.941	27
527.151	28.5
528.363	29.5
529.574	30
530.785	29
531.995	28
533.206	28
534.416	25
535.626	30
536.835	26.5
538.046	30
539.254	26.5
540.463	25.5
541.673	27
542.881	29.5
544.09	25
545.298	26
546.506	29.5
547.714	29.5
548.922	27
550.13	29.5
551.337	24
552.544	32
553.751	29
554.958	27
556.164	28.5
557.37	32
558.577	28
559.782	30.5
560.987	28
562.194	27.5
563.399	30.5
564.604	28.5
565.808	24
567.014	28.5
568.218	21
569.422	27
570.626	27.5
571.829	27.5
573.034	28.5
574.237	29
575.44	26
576.643	24.5
577.846	29
579.048	27
580.252	28.5
581.454	27
582.656	25.5
583.857	24.5
585.059	29.5
586.26	28
587.461	26
588.662	22
589.863	31.5
591.065	27
592.265	25
593.465	25
594.665	27.5
595.865	26
597.065	30.5
598.264	27
599.463	28.5
600.662	23.5
601.861	26
603.06	26.5
604.258	27
605.457	26
606.655	29.5
607.853	29.5
609.05	27
610.248	30
611.444	27.5
612.641	27.5
613.838	24
615.034	29
616.231	30.5
617.427	33
618.624	27.5
619.82	29.5
621.015	27
622.21	26
623.405	29
624.6	27
625.795	29.5
626.99	30
628.185	26
629.378	26.5
630.572	26.5
631.766	28.5
632.96	30.5
634.154	26
635.346	23
636.54	26.5
637.733	26.5
638.926	30
640.117	24
641.31	27.5
642.502	23.5
643.693	27.5
644.885	26
646.077	24
647.267	27
648.459	25.5
649.65	25
650.84	30
652.031	29.5
653.222	30
654.411	28.5
655.601	28
656.791	32.5
657.98	24.5
659.17	25
660.358	30
661.547	26
662.737	29.5
663.924	27
665.113	31
666.3	26.5
667.489	27
668.676	26.5
669.864	26.5
671.05	30.5
672.238	31
673.424	27
674.612	29
675.798	33.5
676.985	32.5
678.17	29
679.357	27
680.542	28.5
681.728	31.5
682.913	31.5
684.097	30
685.283	31
686.467	31
687.652	27.5
688.836	29
690.02	30
691.205	27
692.388	27
693.571	34.5
694.755	28
695.938	31
697.12	32
698.304	34
699.486	31
700.668	30
701.851	34
703.032	33
704.214	39
705.395	38
706.577	35
707.758	35.5
708.939	37
710.119	35.5
711.301	33
712.481	34.5
713.661	29.5
714.84	29
716.02	30.5
717.201	31
718.38	28
719.559	28.5
720.737	27
721.916	29
723.094	23.5
724.274	29
725.452	31.5
726.63	26
727.808	28.5
728.985	25
730.162	28.5
731.339	27.5
732.516	28.5
733.693	31
734.87	24
736.046	27
737.222	26.5
738.398	22.5
739.574	26.5
740.75	25.5
741.925	27
743.1	29.5
744.276	26
745.45	28.5
746.625	26
747.8	26
748.974	29
750.148	29.5
751.322	29.5
752.496	28.5
753.67	28
754.843	26
756.016	27.5
757.189	23
758.362	27.5
759.534	26
760.706	25
761.878	26.5
763.051	28
764.223	29
765.394	28.5
766.565	24.5
767.736	25
768.907	29
770.078	28
771.249	27.5
772.419	27
773.589	31
774.759	26
775.93	28
777.098	31
778.268	26
779.438	24
780.607	24
781.775	28
782.944	28.5
784.113	29
785.28	31
786.449	28
787.617	29.5
788.784	28
789.952	30.5
791.12	30
792.286	26.5
793.453	25
794.62	24.5
795.786	27.5
796.953	29
798.118	29
799.285	29.5
800.45	27.5
801.616	31.5
802.782	28
803.946	29
805.112	26
806.276	24.5
807.441	26.5
808.605	26.5
809.77	27
810.933	24.5
812.098	26
813.261	29.5
814.425	29.5
815.588	25
816.75	25
817.914	24
819.076	26
820.239	29
821.401	24
822.564	25
823.725	24
824.886	27
826.048	27
827.209	29.5
828.37	27
829.532	29
830.692	26
831.852	25.5
833.013	28
834.173	26.5
835.333	29
836.493	21.5
837.653	27
838.812	26
839.972	21.5
841.13	24.5
842.289	26
843.447	25
844.607	28
845.765	22.5
846.922	26
848.08	28
849.237	28.5
850.396	28
851.553	27.5
852.71	28
853.867	28.5
855.023	29.5
856.179	26
857.337	26
858.493	31
859.649	27.5
860.804	26.5
861.96	30
863.115	28
864.27	26.5
865.425	28.5
866.58	28.5
867.734	25
868.888	29.5
870.043	25
871.197	29.5
872.35	26.5
873.504	25.5
874.658	29
875.811	24.5
876.964	23.5
878.117	25.5
879.27	23.5
880.422	27
881.575	27
882.727	25
883.879	26.5
885.031	24
886.182	26
887.334	26.5
888.485	25.5
889.636	27
890.787	25
891.937	25
893.088	26.5
894.238	28.5
895.388	25.5
896.538	27
897.688	25.5
898.837	27
899.986	25.5
901.136	28.5
902.285	26
903.434	26.5
904.581	28
905.73	26.5
906.878	27.5
908.027	28
909.174	23
910.321	28.5
911.469	23
912.617	25
913.763	26
914.91	23.5
916.057	25.5
917.203	24
918.35	27
919.496	26.5
920.641	24
921.787	25
922.933	26.5
924.078	28.5
925.224	25
926.368	24.5
927.513	27
928.658	30.5
929.802	26.5
930.946	26
932.09	23
933.234	26
934.377	24.5
935.521	27.5
936.664	24
937.807	28
938.95	28
940.093	25
941.235	22
942.378	24
943.519	28.5
944.662	30
945.803	24
946.946	27
948.086	26
949.227	23
950.369	21
951.509	23
952.651	24
953.79	24
954.93	21
956.071	28
957.211	25
958.35	27.5
959.49	30
960.629	23.5
961.768	28
962.908	23
964.046	27
965.184	25.5
966.323	25.5
967.461	27.5
968.599	24.5
969.736	21
970.875	23.5
972.012	25
973.149	25.5
974.286	24
975.424	26.5
976.56	28.5
977.697	26
978.833	26
979.969	26
981.104	26
982.241	27
983.377	25.5
984.512	26.5
985.647	23.5
986.782	23.5
987.916	23.5
989.051	24
990.185	24.5
991.321	25
992.455	25.5
993.589	28
994.722	30.5
995.856	27
996.989	27
998.122	25
999.255	26
1000.39	26.5
1001.52	24.5
1002.65	25
1003.79	28
1004.92	23.5
1006.05	28.5
1007.18	24
1008.31	27
1009.44	23.5
1010.57	21
1011.7	25
1012.84	28.5
1013.97	29
1015.1	23
1016.23	27
1017.36	25.5
1018.49	24.5
1019.62	29.5
1020.75	22.5
1021.88	24.5
1023	29
1024.13	29
1025.26	23.5
1026.39	24.5
1027.52	24.5
1028.65	28
1029.78	27.5
1030.9	26
1032.03	26.5
1033.16	26
1034.29	30
1035.41	23
1036.54	27
1037.67	27
1038.79	27.5
1039.92	26
1041.04	28
1042.17	25.5
1043.3	27
1044.42	25
1045.55	24.5
1046.67	21.5
1047.8	22
1048.92	23
1050.05	25.5
1051.17	25
1052.3	29
1053.42	19
1054.54	22.5
1055.67	23
1056.79	23.5
1057.91	28
1059.04	24.5
1060.16	25
1061.28	23.5
1062.41	24
1063.53	27.5
1064.65	23.5
1065.77	24
1066.9	28
1068.02	22.5
1069.14	24.5
1070.26	28.5
1071.38	26.5
1072.5	28.5
1073.62	24.5
1074.74	28
1075.86	25
1076.98	24.5
1078.1	25
1079.22	26
1080.34	25
1081.46	23
1082.58	27.5
1083.7	27.5
1084.82	22.5
1085.94	22
1087.06	20.5
1088.18	21.5
1089.29	26.5
1090.41	27
1091.53	25
1092.65	24
1093.77	25
1094.88	23
1096	27
1097.12	26
1098.23	24
1099.35	29.5
1100.47	20
1101.58	24
1102.7	26
1103.82	27
1104.93	24.5
1106.05	26.5
1107.16	27.5
1108.28	23.5
1109.39	27.5
1110.51	26.5
1111.62	21.5
1112.74	26
1113.85	24.5
1114.96	23.5
1116.08	28
1117.19	24.5
1118.31	23.5
1119.42	29
1120.53	29.5
1121.65	23
1122.76	27.5
1123.87	26
1124.98	25.5
1126.1	24
1127.21	24
1128.32	25
1129.43	24.5
1130.54	24
1131.65	26
1132.76	26.5
1133.88	22
1134.99	24.5
1136.1	26
1137.21	26
1138.32	24.5
1139.43	24
1140.54	24
1141.65	28
1142.76	26.5
1143.87	24
1144.98	21
1146.08	23
1147.19	27
1148.3	24.5
1149.41	26
1150.52	25
1151.63	27
1152.73	26.5
1153.84	25
1154.95	26.5
1156.06	27.5
1157.17	26.5
1158.27	25.5
1159.38	27
1160.49	23
1161.59	18.5
1162.7	25
1163.8	26
1164.91	27.5
1166.02	28
1167.12	28
1168.23	27
1169.33	28
1170.44	26.5
1171.54	26
1172.65	27
1173.75	20.5
1174.86	26
1175.96	24.5
1177.06	26
1178.17	24
1179.27	22.5
1180.37	25
1181.48	25
1182.58	24
1183.68	22.5
1184.79	24.5
1185.89	24
1186.99	25.5
1188.09	24
1189.2	23
1190.3	22.5
1191.4	24.5
1192.5	22.5
1193.6	23.5
1194.7	22.5054
1195.8	26.4636
1196.9	23.0386
1198.01	21.6639
1199.11	24.9139
1200.21	21.5464
1201.31	24.6903
1202.41	24.3844
1203.5	28.401
1204.6	24.4223
1205.7	24.7533
1206.8	27.4417
1207.9	24.3361
1209	20.0614
1210.1	24.7467
1211.2	23.1403
1212.3	22.4513
1213.39	24.7238
1214.49	22.8562
1215.59	23.3531
1216.69	24.1545
1217.78	25.0117
1218.88	26.398
1219.98	24.3486
1221.08	20.125
1222.17	25.9344
1223.27	25.1744
1224.37	23.4531
1225.46	24.0619
1226.56	26.8465
1227.65	20.8727
1228.75	25.3921
1229.84	27.0295
1230.94	21.3415
1232.03	20.5874
1233.13	23.1728
1234.22	22.3967
1235.32	26.1606
1236.41	26.084
1237.51	24.0148
1238.6	23.7026
1239.69	27.6719
1240.79	21.5085
1241.88	25.001
1242.97	25.2931
1244.07	24.2512
1245.16	24.8111
1246.25	22.8675
1247.35	24.307
1248.44	26.2207
1249.53	24.0679
1250.62	21.2877
1251.71	25.6446
1252.81	22.108
1253.9	26.5538
1254.99	26.7709
1256.08	26.2294
1257.17	24.7791
1258.26	23.6088
1259.35	25.4892
1260.44	24.4923
1261.53	24.4927
1262.62	24.3591
1263.71	24.6552
1264.8	24.7256
1265.89	25.135
1266.98	23.2776
1268.07	20.8406
1269.16	24.6853
1270.25	22.851
1271.34	23.0235
1272.43	25.5362
1273.52	22.6292
1274.6	22.8617
1275.69	23.7063
1276.78	24.943
1277.87	23.8071
1278.95	24.6326
1280.04	26.3304
1281.13	23.8804
1282.22	22.8908
1283.3	25.8835
1284.39	24.3543
1285.48	23.3202
1286.56	22.6521
1287.65	25.153
1288.73	22.2759
1289.82	25.1124
1290.91	23.23
1291.99	24.3822
1293.08	23.9832
1294.16	24.1243
1295.24	25.6113
1296.33	23.9591
1297.41	21.3757
1298.5	24.8066
1299.58	23.6604
1300.67	22.4199
1301.75	22.7841
1302.83	22.6495
1303.92	22.585
1305	25.3228
1306.08	25.7629
1306.4	25.5
1307.49	25.5
1308.58	24
1309.66	25.5
1310.75	25
1311.84	24
1312.93	23
1314.01	24.5
1315.1	25
1316.19	25.5
1317.27	23
1318.36	22.5
1319.45	21.5
1320.53	26.5
1321.62	25
1322.71	29
1323.79	25.5
1324.88	25
1325.96	22
1327.05	21
1328.13	27
1329.22	22.5
1330.3	23.5
1331.39	24.5
1332.47	24
1333.55	26.5
1334.64	27
1335.72	23
1336.81	22
1337.89	26
1338.97	24
1340.06	25
1341.14	22.5
1342.22	25.5
1343.3	23
1344.39	25
1345.47	22.5
1346.55	24
1347.63	24.5
1348.71	24
1349.8	27.5
1350.88	24.5
1351.96	25
1353.04	24.5
1354.12	25
1355.2	19.5
1356.28	22
1357.36	19
1358.44	22.5
1359.52	24.5
1360.6	26.5
1361.68	25
1362.76	26.5
1363.84	25.5
1364.92	25.5
1366	23
1367.08	23
1368.16	22
1369.23	26
1370.31	24
1371.39	22.5
1372.47	20
1373.55	23.5
1374.62	26.5
1375.7	22
1376.78	18.5
1377.86	25
1378.93	26
1380.01	29.5
1381.09	25.5
1382.16	24
1383.24	27.5
1384.32	27
1385.39	24
1386.47	23.5
1387.54	25.5
1388.62	23
1389.69	25
1390.77	23.5
1391.84	24
1392.92	26.5
1393.99	23
1395.07	22
1396.14	25.5
1397.21	27
1398.29	27
1399.36	25.5
1400.44	22.5
1401.51	26
1402.58	24
1403.66	25
1404.73	24.5
1405.8	25
1406.87	25
1407.95	25
1409.02	24.5
1410.09	28.5
1411.16	28.5
1412.23	28
1413.3	28.5
1414.38	32
1415.45	25
1416.52	27.5
1417.59	27.5
1418.66	25
1419.73	21.5
1420.8	24.5
1421.87	23
1422.94	24
1424.01	26.5
1425.08	25
1426.15	22
1427.22	25.5
1428.29	23
1429.36	25
1430.43	25
1431.49	26.5
1432.56	24
1433.63	21
1434.7	25
1435.77	23.5
1436.83	25.5
1437.9	25
1438.97	24.5
1440.04	24.5
1441.1	24
1442.17	25.5
1443.24	24
1444.3	24
1445.37	28
1446.44	22.5
1447.5	27
1448.57	23.5
1449.63	26
1450.7	25.5
1451.77	26
1452.83	25.5
1453.9	22
1454.96	24.5
1456.03	27.5
1457.09	21
1458.15	22.5
1459.22	25
1460.28	22
1461.35	26
1462.41	26.5
1463.47	20
1464.54	19.5
1465.6	22.5
1466.66	26.5
1467.73	27
1468.79	22.5
1469.85	26.5
1470.91	23.5
1471.98	27
1473.04	23
1474.1	21
1475.16	23
1476.22	27
1477.28	27.5
1478.35	27.5
1479.41	26
1480.47	23.5
1481.53	24
1482.59	26
1483.65	23
1484.71	23.5
1485.77	23
1486.83	23
1487.89	27.5
1488.95	24
1490.01	24.5
1491.07	28.5
1492.13	21.5
1493.18	24.5
1494.24	26
1495.3	24.5
1496.36	26
1497.42	28.5
1498.48	26
1499.53	23.5
1500.59	26.5
1501.65	26
1502.71	21
1503.76	24
1504.82	23
1505.88	24.5
1506.93	19.5
1507.99	26
1509.05	23
1510.1	26
1511.16	25
1512.21	23
1513.27	25
1514.33	23
1515.38	28.5
1516.44	23.5
1517.49	23.5
1518.55	26
1519.6	26
1520.66	26.5
1521.71	25.5
1522.76	28
1523.82	24.5
1524.87	22
1525.93	26
1526.98	24.5
1528.03	24
1529.08	24.5
1530.14	23
1531.19	26.5
1532.24	30
1533.3	23
1534.35	27
1535.4	26
1536.45	25
1537.5	26
1538.56	24
1539.61	28
1540.66	24
1541.71	25
1542.76	24.5
1543.81	21.5
1544.86	25.5
1545.91	27.5
1546.96	20.5
1548.01	23.5
1549.06	25.5
1550.11	24.5
1551.16	23.5
1552.21	27
1553.26	26.5
1554.31	24
1555.36	23.5
1556.41	26.5
1557.46	23
1558.51	25.5
1559.56	24.5
1560.6	28.5
1561.65	26
1562.7	23.5
1563.75	24.5
1564.79	28
1565.84	23.5
1566.89	25.5
1567.94	33
1568.98	24
1570.03	20.5
1571.08	29
1572.12	25.5
1573.17	20.5
1574.22	25.5
1575.26	27.5
1576.31	26.5
1577.35	25
1578.4	24
1579.44	23.5
1580.49	25
1581.53	25
1582.58	26.5
1583.62	28
1584.67	24.5
1585.71	21
1586.76	27
1587.8	22
1588.84	27
1589.89	26.5
1590.93	22.5
1591.97	26.5
1593.02	23
1594.06	26
1595.1	25
1596.14	24
1597.19	27.5
1598.23	24
1599.27	27
1600.31	23
1601.36	24
1602.4	24
1603.44	23.5
1604.48	20
1605.52	23.5
1606.56	27.5
1607.6	25.5
1608.64	25.5
1609.68	24.5
1610.72	25.5
1611.76	24.5
1612.81	24.5
1613.84	24
1614.88	22
1615.92	27
1616.96	20.5
1618	24.5
1619.04	23.5
1620.08	27
1621.12	29
1622.16	24
1623.2	24
1624.23	29
1625.27	27
1626.31	24
1627.35	30.5
1628.39	24.5
1629.42	25
1630.46	24.5
1631.5	22.5
1632.53	26.5
1633.57	26.5
1634.61	24
1635.64	27.5
1636.68	27
1637.72	25
1638.75	24
1639.79	26
1640.82	26
1641.86	26
1642.89	26.5
1643.93	27.5
1644.96	24.5
1646	24
1647.03	29
1648.07	25
1649.1	26
1650.14	25
1651.17	25
1652.21	29
1653.24	24.5
1654.27	27
1655.31	27
1656.34	27
1657.37	24
1658.41	25.5
1659.44	29.5
1660.47	25.5
1661.5	26
1662.53	23.5
1663.57	23
1664.6	26.5
1665.63	20
1666.66	25.5
1667.69	22
1668.72	23
1669.76	20
1670.79	26
1671.82	26
1672.85	24.5
1673.88	25
1674.91	25.5
1675.94	29
1676.97	25
1678	25.5
1679.03	24.5
1680.06	23.5
1681.09	29
1682.12	21
1683.15	25
1684.17	24
1685.2	27
1686.23	25.5
1687.26	25
1688.29	23
1689.32	26.5
1690.34	25.5
1691.37	24
1692.4	26
1693.43	26.5
1694.45	24
1695.48	24
1696.51	23.5
1697.54	29
1698.56	27
1699.59	25.5
1700.61	26.5
1701.64	24.5
1702.67	25
1703.69	23
1704.72	27
1705.74	24.5
1706.77	25.5
1707.79	23
1708.82	30
1709.84	21
1710.87	22
1711.89	25.5
1712.92	22.5
1713.94	24
1714.97	22
1715.99	25.5
1717.01	29
1718.04	27.5
1719.06	25
1720.08	23
1721.11	26
1722.13	25
1723.15	23
1724.18	28
1725.2	22.5
1726.22	27.5
1727.24	25
1728.26	25
1729.29	23.5
1730.31	26.5
1731.33	24.5
1732.35	22
1733.37	26
1734.39	29
1735.41	25
1736.43	25.5
1737.45	28.5
1738.47	24
1739.5	27
1740.52	26
1741.53	21
1742.55	23
1743.57	23
1744.59	23
1745.61	27
1746.63	28.5
1747.65	22.5
1748.67	22
1749.69	25
1750.71	22
1751.72	26
1752.74	26
1753.76	27
1754.78	24
1755.8	24.5
1756.81	25
1757.83	27
1758.85	20
1759.87	25
1760.88	25
1761.9	23.5
1762.92	23
1763.93	23
1764.95	26
1765.96	22.5
1766.98	25
1768	25.5
1769.01	26
1770.03	25.5
1771.04	28
1772.06	25.5
1773.07	24
1774.09	30
1775.1	23.5
1776.12	26
1777.13	25
1778.15	28
1779.16	25
1780.17	28
1781.19	21.5
1782.2	22.5
1783.21	22
1784.23	25
1785.24	24
1786.25	21
1787.27	23
1788.28	23.5
1789.29	26
1790.3	25
1791.32	24
1792.33	26
1793.34	26
1794.35	25.5
1795.36	19
1796.38	26.5
1797.39	25.5
1798.4	22
1799.41	23.5
1800.42	23.5
1801.43	22.5
1802.44	27.5
1803.45	22.5
1804.46	23
1805.47	28.5
1806.48	22
1807.49	22
1808.5	23
1809.51	26.5
1810.52	28
1811.53	28.5
1812.53	27
1813.54	27
1814.55	25
1815.56	23.5
1816.57	23
1817.58	25
1818.59	22
1819.59	28.5
1820.6	22
1821.61	22
1822.62	21.5
1823.62	21
1824.63	25.5
1825.64	26.5
1826.64	24.5
1827.65	21
1828.66	22
1829.66	26.5
1830.67	22
1831.67	23
1832.68	28
1833.69	24
1834.69	22
1835.7	25
1836.7	25.5
1837.71	22
1838.71	26.5
1839.72	26
1840.72	22.5
1841.72	24
1842.73	29.5
1843.73	21
1844.74	20.5
1845.74	22.5
1846.74	23.5
1847.75	23.5
1848.75	23
1849.75	24.5
1850.76	27
1851.76	22
1852.76	24
1853.76	20.5
1854.77	24
1855.77	23.5
1856.77	26.5
1857.77	25
1858.78	23
1859.78	26
1860.78	26.5
1861.78	21.5
1862.78	24
1863.78	26
1864.78	29
1865.78	22
1866.78	22
1867.78	23
1868.78	27.5
1869.78	26
1870.78	26
1871.78	22.5
1872.78	25.5
1873.78	25
1874.78	25
1875.78	21
1876.78	25
1877.78	27
1878.78	23
1879.78	22.5
1880.77	23
1881.77	26.5
1882.77	24
1883.77	23
1884.77	26
1885.76	25.5
1886.76	25
1887.76	23
1888.75	23.5
1889.75	25
1890.75	27
1891.74	25
1892.74	26.5
1893.74	25.5
1894.73	24
1895.73	22.5
1896.73	23.5
1897.72	27
1898.72	19
1899.71	26
1900.71	23.5
1901.7	21
1902.7	25.5
1903.69	23.5
1904.69	21
1905.68	21.5
1906.68	23
1907.67	29.5
1908.66	22
1909.66	24
1910.65	25
1911.64	26.5
1912.64	22
1913.63	24.5
1914.62	24
1915.62	24.5
1916.61	24.5
1917.6	27
1918.6	23
1919.59	27
1920.58	25.5
1921.57	25
1922.56	22.5
1923.55	22
1924.55	25
1925.54	23
1926.53	21
1927.52	22.5
1928.51	25
1929.5	22
1930.49	24
1931.48	26.5
1932.47	23.5
1933.46	26
1934.45	22.5
1935.44	23
1936.43	22
1937.42	23
1938.41	28
1939.4	24
1940.39	25
1941.38	23
1942.37	21
1943.36	21.5
1944.35	25.5
1945.33	26
1946.32	24
1947.31	23.5
1948.3	25.5
1949.29	27.5
1950.27	25
1951.26	23
1952.25	24.5
1953.24	23
1954.22	18
1955.21	20.5
1956.2	23.5
1957.18	23
1958.17	25
1959.16	22
1960.14	26
1961.13	25.5
1962.11	27
1963.1	22.5
1964.08	23
1965.07	23
1966.05	23
1967.04	22
1968.02	25
1969.01	31
1969.99	22
1970.98	21
1971.96	26
1972.95	22
1973.93	19.5
1974.91	24
1975.9	24
1976.88	28
1977.86	23.5
1978.85	26.5
1979.83	22
1980.81	29.5
1981.8	22.5
1982.78	20.5
1983.76	27
1984.74	27
1985.73	23
1986.71	24
1987.69	24
1988.67	22.5
1989.65	26.5
1990.63	21
1991.62	25
1992.6	25
1993.58	24.5
1994.56	26
1995.54	25
1996.52	24.5
1997.5	23
1998.48	22.5
1999.46	26
2000.44	19.5
2001.42	23
2002.4	21.5
2003.38	25
2004.36	20
2005.34	27
2006.32	26.5
2007.29	25.5
2008.27	25
2009.25	23
2010.23	22.5
2011.21	26
2012.19	20
2013.17	24.5
2014.14	22.5
2015.12	25
2016.1	25
2017.07	22.5
2018.05	25
2019.03	20
2020.01	24
2020.98	24.5
2021.96	20
2022.94	26.5
2023.91	24
2024.89	25.5
2025.86	22
2026.84	23.5
2027.82	24.5
2028.79	26
2029.77	24
2030.74	24.5
2031.72	25
2032.69	23.5
2033.67	23
2034.64	26
2035.62	25
2036.59	26.5
2037.56	24
2038.54	25
2039.51	24.5
2040.49	20.5
2041.46	23.5
2042.43	25.5
2043.41	24
2044.38	24.5
2045.35	22
2046.32	25.5
2047.3	26
2048.27	25.5
2049.24	23.5
2050.21	27
2051.19	23
2052.16	23.5
2053.13	21.5
2054.1	21
2055.07	24
2056.05	20.5
2057.02	22
2057.99	21
2058.96	21
2059.93	25.5
2060.9	24.5
2061.87	19
2062.84	24
2063.81	24
2064.78	23
2065.75	21
2066.72	23
2067.69	22
2068.66	22
2069.63	23
2070.6	23
2071.57	21.5
2072.54	23
2073.5	25
2074.47	27
2075.44	24.5
2076.41	21
2077.38	26.5
2078.35	22.5
2079.31	26.5
2080.28	25.5
2081.25	23.5
2082.22	22
2083.18	26
2084.15	21
2085.12	25
2086.08	21
2087.05	22.5
2088.02	21.5
2088.98	20.5
2089.95	21
2090.92	24.5
2091.88	26.5
2092.85	19.5
2093.81	23.5
2094.78	21
2095.74	24
2096.71	21.5
2097.67	21
2098.64	23
2099.6	24
2100.57	23.5
2101.53	26
2102.5	18.5
2103.46	26.5
2104.42	23
2105.39	23
2106.35	22.5
2107.32	20.5
2108.28	22
2109.24	24
2110.21	23
2111.17	25
2112.13	25
2113.09	27.5
2114.06	24.5
2115.02	24
2115.98	29
2116.94	25.5
2117.91	25
2118.87	22.5
2119.83	29.5
2120.79	23
2121.75	20.5
2122.71	23.5
2123.67	24
2124.63	27
2125.6	22
2126.56	24
2127.52	27
2128.48	23.5
2129.44	18
2130.4	23
2131.36	21
2132.32	24.5
2133.28	23
2134.23	23.5
2135.19	26
2136.15	21.5
2137.11	21.5
2138.07	22
2139.03	22.5
2139.99	22
2140.95	21.5
2141.9	22
2142.86	21.5019
2143.82	24.4459
2144.78	23.0639
2145.74	23.1019
2146.69	24.0082
2147.65	20.9204
2148.61	20.5158
2149.57	23.7087
2150.52	24.1582
2151.48	22.894
2152.44	25.6942
2153.39	23.8507
2154.35	23.8162
2155.31	19.9315
2156.26	24.6343
2157.22	20.3023
2158.17	21.4169
2159.13	23.5284
2160.08	23.5184
2161.04	26.32
2161.99	26.5866
2162.95	23.6869
2163.91	21.4201
2164.86	21.8751
2165.81	23.086
2166.77	22.3335
2167.72	23.0565
2168.68	20.4809
2169.63	18.6108
2170.58	27.6604
2171.54	21.5932
2172.49	25.6965
2173.45	23.6094
2174.4	21.466
2175.35	20.472
2176.31	20.7958
2177.26	24.3544
2178.21	25.0457
2179.16	17.4956
2180.12	24.2226
2181.07	20.0624
2182.02	23.3712
2182.97	22.7063
2183.92	22.4091
2184.88	24.9932
2185.83	23.4185
2186.78	22.1986
2187.73	22.6431
2188.68	23.2176
2189.63	21.7135
2190.58	20.4198
2191.53	21.516
2192.49	22.2177
2193.43	22.2403
2194.39	22.4583
2195.34	19.616
2196.28	20.315
2197.24	24.0938
2198.19	21.1837
2199.13	22.8005
2200.08	20.9491
2201.03	22.4397
2201.98	21.7351
2202.93	18.7745
2203.88	20.6002
2204.83	23.3431
2205.78	24.3157
2206.73	22.582
2207.67	19.9913
2208.62	21.0428
2209.57	21.3132
2210.52	19.78
2211.47	21.6137
2212.41	21.5749
2213.36	23.618
2214.31	20.5658
2215.26	22.4309
2216.2	23.7982
2217.15	22.0708
2218.1	21.1217
2219.04	21.9094
2219.99	22.9693
2220.93	22.5
2221.88	22.2793
2222.83	21.165
2223.77	21.628
2224.72	21.0666
2225.66	21
2226.61	21.8546
2227.55	23.4696
2228.5	22.5974
2229.44	22.9738
2230.39	22.1711
2231.33	21.2236
2232.28	22.1466
2233.22	25.1635
2234.17	20.4778
2235.11	19.7149
2236.06	21.3355
2237	20.3449
2237.94	23.034
2238.89	23.2053
2239.83	19.9767
2240.06	19
2241.01	25.5
2241.96	24
2242.9	25
2243.85	19.5
2244.8	20
2245.75	23
2246.69	25
2247.64	23
2248.59	24.5
2249.53	22
2250.48	19
2251.43	25
2252.37	23
2253.32	19.5
2254.27	21.5
2255.21	26
2256.16	24.5
2257.1	24
2258.05	23.5
2259	19
2259.94	23
2260.89	23.5
2261.83	23.5
2262.78	22.5
2263.72	22
2264.67	25
2265.61	22
2266.56	23
2267.5	26
2268.44	27
2269.39	25.5
2270.33	18.5
2271.27	23.5
2272.22	24
2273.16	22
2274.1	22.5
2275.05	23
2275.99	20
2276.93	24.5
2277.88	22
2278.82	19
2279.76	23.5
2280.7	24
2281.65	20
2282.59	21
2283.53	23
2284.47	25
2285.41	24.5
2286.35	22.5
2287.29	26
2288.24	19
2289.18	22
2290.12	22
2291.06	22.5
2292	19
2292.94	21.5
2293.88	22
2294.82	24.5
2295.76	20.5
2296.7	25.5
2297.64	19.5
2298.58	23.5
2299.52	23.5
2300.46	23
2301.4	23.5
2302.34	23.5
2303.28	25
2304.21	23
2305.15	24.5
2306.09	25
2307.03	21.5
2307.97	26
2308.91	23.5
2309.84	22.5
2310.78	25.5
2311.72	25.5
2312.66	25
2313.59	23
2314.53	22.5
2315.47	23.5
2316.4	26.5
2317.34	24
2318.28	24
2319.22	24
2320.15	25
2321.09	19.5
2322.02	23
2322.96	25
2323.89	20
2324.83	21.5
2325.77	23
2326.7	20
2327.64	23
2328.57	25
2329.51	21
2330.44	23.5
2331.38	25.5
2332.31	26.5
2333.25	26.5
2334.18	26
2335.11	24.5
2336.05	18.5
2336.98	23
2337.92	21
2338.85	21
2339.78	18.5
2340.72	23.5
2341.65	24
2342.58	23
2343.52	26
2344.45	27
2345.38	25.5
2346.31	24
2347.25	22.5
2348.18	25
2349.11	24.5
2350.04	22.5
2350.97	23
2351.9	25
2352.84	25
2353.77	23
2354.7	27
2355.63	23.5
2356.56	19.5
2357.49	26.5
2358.42	23
2359.35	26
2360.28	23
2361.21	23
2362.14	26
2363.07	21.5
2364	25.5
2364.93	18
2365.86	23.5
2366.79	25
2367.72	21
2368.65	25
2369.58	22
2370.51	25
2371.44	24.5
2372.36	24
2373.29	23
2374.22	25
2375.15	22.5
2376.08	22
2377.01	25
2377.93	23
2378.86	21
2379.79	24.5
2380.72	22.5
2381.64	23
2382.57	25.5
2383.5	19
2384.42	23.5
2385.35	25.5
2386.28	26
2387.2	25
2388.13	24
2389.06	24.5
2389.98	24
2390.91	24
2391.83	22
2392.76	15.5
2393.69	28
2394.61	25.5
2395.54	22
2396.46	26
2397.39	22
2398.31	26
2399.23	21.5
2400.16	22.5
2401.08	25
2402.01	23
2402.93	24
2403.86	26
2404.78	24.5
2405.7	27.5
2406.63	22.5
2407.55	20
2408.47	24
2409.4	25
2410.32	23
2411.24	26.5
2412.17	24.5
2413.09	24.5
2414.01	24.5
2414.93	23
2415.85	24.5
2416.78	29
2417.7	23
2418.62	20
2419.54	19.5
2420.46	21
2421.38	21
2422.31	26
2423.23	21.5
2424.15	21
2425.07	24.5
2425.99	23.5
2426.91	22.5
2427.83	23
2428.75	24
2429.67	26
2430.59	22
2431.51	27
2432.43	28.5
2433.35	23
2434.27	23
2435.19	26.5
2436.11	25.5
2437.03	26
2437.94	24
2438.86	24.5
2439.78	21.5
2440.7	27.5
2441.62	27.5
2442.54	22.5
2443.46	25.5
2444.37	26.5
2445.29	22.5
2446.21	25.5
2447.13	22.5
2448.04	24.5
2448.96	24
2449.88	25.5
2450.8	23.5
2451.71	22.5
2452.63	24
2453.55	22
2454.46	22.5
2455.38	23
2456.29	25
2457.21	22
2458.13	22.5
2459.04	24.5
2459.96	26.5
2460.87	23
2461.79	25
2462.7	23
2463.62	24
2464.53	24.5
2465.45	25.5
2466.36	19.5
2467.28	22.5
2468.19	24
2469.11	23.5
2470.02	26.5
2470.93	23.5
2471.85	24
2472.76	26
2473.67	24.5
2474.59	19.5
2475.5	25
2476.42	25.5
2477.33	22.5
2478.24	23.5
2479.15	26
2480.07	24
2480.98	25.5
2481.89	23
2482.8	21
2483.72	21
2484.63	21.5
2485.54	24
2486.45	24.5
2487.36	25.5
2488.27	23.5
2489.19	24
2490.1	25.5
2491.01	26
2491.92	22
2492.83	26
2493.74	23.5
2494.65	24.5
2495.56	26
2496.47	24
2497.38	21.5
2498.29	21
2499.2	28.5
2500.11	18.5
2501.02	28
2501.93	22
2502.84	21
2503.75	27
2504.66	26.5
2505.57	25.5
2506.47	21.5
2507.38	24.5
2508.29	23.5
2509.2	21
2510.11	23
2511.02	19
2511.92	24
2512.83	23
2513.74	25
2514.65	21
2515.55	21
2516.46	27.5
2517.37	25
2518.28	26
2519.18	23
2520.09	22.5
2521	27
2521.9	24
2522.81	27
2523.72	26
2524.62	24
2525.53	22
2526.43	25.5
2527.34	23.5
2528.24	21.5
2529.15	23.5
2530.06	25.5
2530.96	23
2531.87	24
2532.77	24
2533.68	26.5
2534.58	25
2535.48	24.5
2536.39	24
2537.29	25
2538.2	26
2539.1	24.5
2540	26
2540.91	23.5
2541.81	25.5
2542.72	23.5
2543.62	26.5
2544.52	21
2545.42	20
2546.33	24.5
2547.23	22.5
2548.13	23.5
2549.04	23
2549.94	24.5
2550.84	25.5
2551.74	24.5
2552.64	26
2553.55	24
2554.45	23
2555.35	23
2556.25	25
2557.15	20.5
2558.05	28
2558.95	24
2559.85	20.5
2560.76	25
2561.66	26
2562.56	25.5
2563.46	28
2564.36	26.5
2565.26	24.5
2566.16	25
2567.06	20
2567.96	24.5
2568.86	23.5
2569.76	26.5
2570.66	24
2571.55	26.5
2572.45	23
2573.35	26
2574.25	25.5
2575.15	21.5
2576.05	21.5
2576.95	26
2577.84	23
2578.74	26
2579.64	23.5
2580.54	25
2581.44	22.5
2582.33	24.5
2583.23	23.5
2584.13	24.5
2585.03	26
2585.92	26.5
2586.82	28
2587.72	24
2588.61	24
2589.51	23
2590.41	25.5
2591.3	25.5
2592.2	24
2593.09	24
2593.99	26
2594.89	26
2595.78	27
2596.68	26
2597.57	27.5
2598.47	23
2599.36	22
2600.26	19.5
2601.15	22
2602.05	25
2602.94	24
2603.84	23.5
2604.73	27.5
2605.63	25
2606.52	25
2607.41	22
2608.31	27
2609.2	23.5
2610.09	27.5
2610.99	21.5
2611.88	24
2612.77	22.5
2613.67	22
2614.56	23.5
2615.45	25
2616.35	21
2617.24	24.5
2618.13	25
2619.02	25.5
2619.91	22.5
2620.81	27.5
2621.7	25.5
2622.59	27.5
2623.48	23.5
2624.37	24.5
2625.26	25.5
2626.15	23
2627.05	28.5
2627.94	27.5
2628.83	26.5
2629.72	27
2630.61	26
2631.5	25
2632.39	25
2633.28	24.5
2634.17	25.5
2635.06	21.5
2635.95	22
2636.84	24.5
2637.73	24
2638.62	19
2639.51	23
2640.4	22.5
2641.28	25
2642.17	20
2643.06	21.5
2643.95	23.5
2644.84	25.5
2645.73	26
2646.62	23.5
2647.5	21.5
2648.39	25
2649.28	28
2650.17	25.5
2651.05	20
2651.94	23
2652.83	22
2653.72	28
2654.6	25
2655.49	24
2656.38	25
2657.26	24
2658.15	25
2659.04	27
2659.92	26
2660.81	26.5
2661.69	28
2662.58	24.5
2663.47	24.5
2664.35	24
2665.24	25
2666.12	21
2667.01	24
2667.89	24
2668.78	22
2669.66	25
2670.55	25
2671.43	20.5
2672.32	27.5
2673.2	21
2674.08	24
2674.97	27.5
2675.85	22
2676.74	22.5
2677.62	23
2678.5	20
2679.39	29
2680.27	26.5
2681.15	28.5
2682.04	25
2682.92	26.5
2683.8	24.5
2684.68	25.5
2685.57	23
2686.45	24.5
2687.33	21
2688.21	25
2689.09	26
2689.98	23.5
2690.86	20.5
2691.74	25.5
2692.62	28
2693.5	22.5
2694.38	24
2695.27	22
2696.15	27
2697.03	24.5
2697.91	23.5
2698.79	23
2699.67	25
2700.55	25.5
2701.43	25
2702.31	24
2703.19	25
2704.07	22
2704.95	23
2705.83	27.5
2706.71	25.5
2707.59	21
2708.47	21
2709.34	21
2710.22	25
2711.1	27.5
2711.98	21
2712.86	24
2713.74	24
2714.62	22
2715.49	22
2716.37	23.5
2717.25	21
2718.13	27
2719.01	30
2719.88	23.5
2720.76	24.5
2721.64	25.5
2722.51	24
2723.39	24.5
2724.27	23.5
2725.14	24.5
2726.02	23
2726.9	20
2727.77	25
2728.65	25.5
2729.53	26
2730.4	25
2731.28	26
2732.15	22.5
2733.03	23
2733.91	31
2734.78	25
2735.66	21
2736.53	21
2737.41	23
2738.28	25
2739.16	25
2740.03	25
2740.9	26.5
2741.78	21.5
2742.65	24
2743.53	21
2744.4	23.5
2745.27	22.5
2746.15	22.5
2747.02	25
2747.89	25.5
2748.77	25
2749.64	24
2750.51	25.5
2751.39	28
2752.26	20.5
2753.13	24
2754.01	23
2754.88	27
2755.75	25.5
2756.62	27
2757.49	22
2758.37	22.5
2759.24	25.5
2760.11	23.5
2760.98	20
2761.85	21
2762.72	25
2763.59	26.5
2764.46	24.5
2765.34	20.5
2766.21	30
2767.08	22
2767.95	24
2768.82	24
2769.69	23
2770.56	25
2771.43	18.5
2772.3	24
2773.17	26
2774.04	24
2774.91	24
2775.78	25
2776.65	21.5
2777.51	24
2778.38	22
2779.25	23
2780.12	25.5
2780.99	23
2781.86	24
2782.73	24.5
2783.59	26
2784.46	23
2785.33	21.5
2786.2	21
2787.07	22.5
2787.93	23.5
2788.8	25.5
2789.67	27
2790.54	22.5
2791.4	20.5
2792.27	25
2793.14	20.5
2794	24
2794.87	27
2795.74	27
2796.6	23
2797.47	26
2798.34	26
2799.2	27
2800.07	25.5
2800.93	24.75
2801.8	22
2802.66	27
2803.53	22
2804.39	23
2805.26	23
2806.12	26
2806.99	27
2807.85	26
2808.72	22
2809.58	27
2810.45	24
2811.31	24
2812.18	23.5
2813.04	25.5
2813.9	22
2814.77	26
2815.63	23
2816.49	23
2817.36	23.5
2818.22	20
2819.08	27
2819.95	20
2820.81	21.5
2821.67	27.5
2822.53	25.5
2823.4	23
2824.26	27
2825.12	24.5
2825.98	23.5
2826.84	22.5
2827.71	21.5
2828.57	22.5
2829.43	25
2830.29	24
2831.15	23.5
2832.01	23
2832.88	27.5
2833.74	25
2834.6	29
2835.46	26
2836.32	26
2837.18	21
2838.04	23
2838.9	22
2839.76	26.5
2840.62	23
2841.48	23.5
2842.34	26
2843.2	28.5
2844.06	21.5
2844.92	26.5
2845.78	25
2846.63	24.5
2847.49	23.5
2848.35	25.5
2849.21	24
2850.07	23.5
2850.93	22.5
2851.79	28.5
2852.64	26.5
2853.5	22
2854.36	24
2855.22	26.5
2856.08	20
2856.93	23
2857.79	28.5
2858.65	27
2859.51	20.5
2860.36	24.5
2861.22	26
2862.08	24
2862.93	25
2863.79	24.5
2864.65	25.5
2865.5	26
2866.36	26
2867.22	23
2868.07	24.5
2868.93	26.5
2869.78	27
2870.64	24.5
2871.49	24.5
2872.35	29
2873.21	22
2874.06	25
2874.91	27.5
2875.77	26.5
2876.62	27
2877.48	23
2878.33	29
2879.19	29
2880.04	27
2880.9	30
2881.75	28.5
2882.6	26
2883.46	26
2884.31	29
2885.17	25
2886.02	28.5
2886.87	28.5
2887.73	28.5
2888.58	30
2889.43	33
2890.28	26.5
2891.14	31.5
2891.99	33
2892.84	29
2893.69	33
2894.55	31
2895.4	37
2896.25	36.5
2897.1	32.5
2897.95	33.5
2898.8	36
2899.66	40.5
2900.51	38.5
2901.36	39
2902.21	39.5
2903.06	41.5
2903.91	43
2904.76	46
2905.61	42
2906.46	41
2907.31	41.5
2908.16	41
2909.01	40
2909.86	43
2910.71	43.5
2911.56	36.5
2912.41	38
2913.26	32
2914.11	33.5
2914.96	33
2915.81	34
2916.66	33
2917.51	30
2918.36	29
2919.2	25.5
2920.05	27.5
2920.9	25
2921.75	27.5
2922.6	23.5
2923.45	21
2924.29	23.5
2925.14	26
2925.99	22
2926.84	23.5
2927.68	23.5
2928.53	25.5
2929.38	26.5
2930.23	24
2931.07	23.5
2931.92	24
2932.77	24.5
2933.61	28.5
2934.46	23
2935.3	23.5
2936.15	25
2937	26
2937.84	23.5
2938.69	24
2939.53	28.5
2940.38	26.5
2941.23	21.5
2942.07	25
2942.92	27.5
2943.76	22.5
2944.61	30.5
2945.45	27
2946.3	26
2947.14	25.5
2947.98	27.5
2948.83	31
2949.67	23.5
2950.52	25.5
2951.36	26.5
2952.2	26
2953.05	24
2953.89	27.5
2954.74	25.5
2955.58	25
2956.42	31
2957.27	33.5
2958.11	28
2958.95	29
2959.79	26
2960.64	30
2961.48	30
2962.32	28
2963.16	27.5
2964.01	30
2964.85	30
2965.69	29
2966.53	30.5
2967.37	30.5
2968.21	32
2969.06	28.5
2969.9	33
2970.74	28.5
2971.58	27.9927
2972.42	24.9616
2973.26	28.9633
2974.1	28.4984
2974.94	25.9316
2975.78	28.901
2976.62	27.8277
2977.46	25.9272
2978.3	25.699
2979.14	23.9772
2979.98	25.3471
2980.82	24.5893
2981.66	22.7071
2982.5	27.1533
2983.34	21.5631
2984.18	24.8728
2985.02	23.3781
2985.86	24.5043
2986.7	21.1796
2987.54	23.294
2988.38	26.1787
2989.21	22.2525
2990.05	25.975
2990.89	24.724
2991.73	24.666
2992.57	24.7365
2993.41	22.6415
2994.24	21.7089
2995.08	26.5179
2995.92	25.3331
2996.76	23.1303
2997.59	21.7676
2998.43	22.6374
2999.27	23.0404
3000.1	19.8398
3000.94	22.2998
3001.78	22.8115
3002.61	24.1448
3003.45	21.768
3004.29	24.2499
3005.12	23.6115
3005.96	21.6706
3006.8	22.829
3007.63	22.842
3008.47	22.0694
3009.3	23.56
3010.14	21.5953
3010.97	22.2274
3011.81	24.1663
3012.64	23.5834
3013.48	22.7296
3014.31	22.596
3015.15	21.5949
3015.98	23.5538
3016.82	23.2413
3017.65	22.0344
3018.49	21.8628
3019.32	22.4889
3020.16	23.6579
3020.99	21.1315
3021.82	21.9983
3022.66	22.3724
3023.49	22.5241
3024.32	21.7846
3025.16	20.7306
3025.99	23.2826
3026.82	22.9526
3027.66	23.4085
3028.49	21.4663
3029.32	21.9805
3030.16	23.8509
3030.99	22.1719
3031.82	20.8601
3032.65	22.0978
3033.49	23.1056
3034.32	21.6267
3035.15	21.2564
3035.98	22.5938
3036.81	22.9522
3037.64	21.3542
3038.48	22.6609
3039.31	20.939
3040.14	20.5904
3040.97	22.2278
3041.8	22.4159
3042.63	22.7294
3043.46	22.8903
3044.29	21.05
3045.12	21.8457
3045.95	21.909
3046.78	21.1297
3047.61	20.2519
3048.44	21.8873
3049.27	21.984
3050.1	21.1186
3050.93	20.982
3051.76	22.3082
3052.59	22.0579
3053.42	22.5874
3054.25	22.1209
3055.08	20.873
3055.91	21.2158
3056.74	21.5025
3057.26	19
3058.09	22
3058.92	25
3059.76	21
3060.59	22.5
3061.42	19.5
3062.26	24
3063.09	23
3063.92	24.5
3064.75	23
3065.59	22
3066.42	23
3067.25	23.5
3068.08	29
3068.91	19
3069.74	22
3070.58	25
3071.41	21
3072.24	22.5
3073.07	20
3073.9	22.5
3074.73	24
3075.56	23.5
3076.39	21.5
3077.22	26
3078.05	24.5
3078.88	23.5
3079.71	22
3080.55	21
3081.38	23.5
3082.2	26
3083.03	25
3083.86	22
3084.69	25.5
3085.52	26.5
3086.35	24.5
3087.18	24.5
3088.01	19.5
3088.84	25
3089.67	19.5
3090.5	25
3091.33	19
3092.15	22.5
3092.98	24
3093.81	25
3094.64	19
3095.47	24
3096.29	19
3097.12	24
3097.95	22.5
3098.78	24.5
3099.6	24
3100.43	26
3101.26	21
3102.09	22.5
3102.91	22.5
3103.74	18.5
3104.57	19
3105.39	21
3106.22	25
3107.05	22
3107.87	21
3108.7	21
3109.52	20
3110.35	22
3111.18	22.5
3112	22
3112.83	25
3113.65	23
3114.48	23.5
3115.3	24
3116.13	22.5
3116.95	21
3117.78	23
3118.6	23.5
3119.43	21
3120.25	23
3121.08	25.5
3121.9	22
3122.73	20
3123.55	25.5
3124.37	23
3125.2	21.5
3126.02	27
3126.84	24
3127.67	24
3128.49	22.5
3129.31	22.5
3130.14	27
3130.96	24
3131.78	22.5
3132.61	24.5
3133.43	24.5
3134.25	23
3135.07	21
3135.9	25.5
3136.72	21
3137.54	26
3138.36	23.5
3139.18	23.5
3140.01	26
3140.83	21.5
3141.65	22.5
3142.47	23.5
3143.29	23
3144.11	21.5
3144.93	22.5
3145.75	24
3146.58	23.5
3147.4	27.5
3148.22	21
3149.04	26
3149.86	24.5
3150.68	21.5
3151.5	24
3152.32	21
3153.14	23
3153.96	23
3154.78	26
3155.6	22.5
3156.42	24
3157.23	24.5
3158.05	24.5
3158.87	22.5
3159.69	27
3160.51	25
3161.33	22
3162.15	20
3162.97	25
3163.79	25.5
3164.6	24
3165.42	24
3166.24	22
3167.06	26
3167.88	21
3168.69	23
3169.51	19.5
3170.33	25
3171.15	27.5
3171.96	25.5
3172.78	22
3173.6	25
3174.41	22.5
3175.23	25.5
3176.05	23
3176.86	24
3177.68	23.5
3178.5	22.5
3179.31	24
3180.13	23.5
3180.95	26.5
3181.76	18.5
3182.58	18
3183.39	23.5
3184.21	24.5
3185.02	22.5
3185.84	22
3186.65	24.5
3187.47	26
3188.28	25.5
3189.1	24.5
3189.91	23
3190.73	20.5
3191.54	23.5
3192.36	23.5
3193.17	25
3193.99	21.5
3194.8	22.5
3195.61	25
3196.43	23.5
3197.24	26.5
3198.05	24
3198.87	24
3199.68	23
3200.49	20.5
3201.31	24
3202.12	25.5
3202.93	28
3203.75	24
3204.56	20
3205.37	22
3206.18	21.5
3207	23
3207.81	25.5
3208.62	25
3209.43	18
3210.24	21.5
3211.06	22
3211.87	24
3212.68	21
3213.49	23.5
3214.3	23
3215.11	21
3215.92	23.5
3216.74	25
3217.55	25.5
3218.36	24
3219.17	21.5
3219.98	25
3220.79	27
3221.6	22.5
3222.41	18
3223.22	21.5
3224.03	26.5
3224.84	19
3225.65	24
3226.46	22
3227.27	25
3228.08	21.5
3228.89	23.5
3229.7	25
3230.5	24.5
3231.31	20
3232.12	22.5
3232.93	23.5
3233.74	26
3234.55	25.5
3235.36	19.5
3236.16	24.5
3236.97	23
3237.78	22.5
3238.59	21.5
3239.4	23.5
3240.2	23
3241.01	25.5
3241.82	22.5
3242.63	21.5
3243.43	24
3244.24	23
3245.05	24
3245.86	22
3246.66	26
3247.47	25.5
3248.28	24.5
3249.08	23
3249.89	21
3250.69	23
3251.5	24.5
3252.31	22.5
3253.11	28
3253.92	23.5
3254.72	26
3255.53	20
3256.34	24
3257.14	28
3257.95	27.5
3258.75	24
3259.56	27.5
3260.36	24.5
3261.17	23
3261.97	23
3262.77	22.5
3263.58	21
3264.38	26
3265.19	27.5
3265.99	23.5
3266.8	22.5
3267.6	25
3268.4	24
3269.21	20
3270.01	24
3270.81	26
3271.62	18
3272.42	22
3273.22	26.5
3274.03	22.5
3274.83	26.5
3275.63	22
3276.43	29
3277.24	24.5
3278.04	23
3278.84	18.5
3279.64	25
3280.45	22
3281.25	27.5
3282.05	22.5
3282.85	19
3283.65	22
3284.46	22
3285.26	21.5
3286.06	22.5
3286.86	25.5
3287.66	25.5
3288.46	25.5
3289.26	24.5
3290.06	24
3290.86	24
3291.66	25.5
3292.46	25
3293.26	26
3294.06	21
3294.86	25.5
3295.66	22.5
3296.46	26.5
3297.26	24.5
3298.06	25
3298.86	21
3299.66	25
3300.46	23
3301.26	22
3302.06	22.5
3302.86	24
3303.66	25
3304.46	25
3305.26	20.5
3306.05	22
3306.85	23.5
3307.65	25
3308.45	25
3309.25	25.5
3310.04	20
3310.84	25.5
3311.64	19
3312.44	25.5
3313.24	24
3314.03	24.5
3314.83	25.5
3315.63	22.5
3316.42	24.5
3317.22	24.5
3318.02	24.5
3318.82	26
3319.61	21
3320.41	22
3321.2	26.5
3322	23.5
3322.8	25
3323.59	23.5
3324.39	20
3325.19	21.5
3325.98	25.5
3326.78	22.5
3327.57	27
3328.37	20.5
3329.16	24.5
3329.96	22
3330.75	29.5
3331.55	20.5
3332.34	22.5
3333.14	23
3333.93	25.5
3334.73	26
3335.52	24.5
3336.32	27
3337.11	26
3337.9	27
3338.7	25
3339.49	24
3340.29	24.5
3341.08	28
3341.87	24
3342.67	24.5
3343.46	28
3344.25	23
3345.05	25
3345.84	24
3346.63	27.5
3347.42	26
3348.22	21
3349.01	25
3349.8	21
3350.59	25.5
3351.39	27
3352.18	21.5
3352.97	24
3353.76	25
3354.55	23.5
3355.35	23
3356.14	23.5
3356.93	23.5
3357.72	21.5
3358.51	25
3359.3	24.5
3360.09	21
3360.88	20
3361.67	19
3362.47	22
3363.26	24.5
3364.05	23
3364.84	26.5
3365.63	23.5
3366.42	23
3367.21	26.5
3368	23
3368.79	25
3369.58	23.5
3370.37	18.5
3371.16	28
3371.95	26.5
3372.73	25
3373.52	20
3374.31	26
3375.1	21
3375.89	25
3376.68	25
3377.47	24.5
3378.26	24.5
3379.04	25
3379.83	22.5
3380.62	26
3381.41	24
3382.2	24.5
3382.98	24
3383.77	20
3384.56	24.5
3385.35	21.5
3386.14	23.5
3386.92	22.5
3387.71	24
3388.5	24
3389.28	24.5
3390.07	22
3390.86	24.5
3391.64	22
3392.43	18.5
3393.22	26
3394	25
3394.79	27
3395.58	23
3396.36	22.5
3397.15	23.5
3397.93	21
3398.72	23.5
3399.5	22.5
3400.29	24
3401.07	21.5
3401.86	24.5
3402.65	24
3403.43	23
3404.22	23.5
3405	26.5
3405.79	22.5
3406.57	24
3407.35	26
3408.14	24
3408.92	21
3409.71	26
3410.49	22
3411.27	22
3412.06	21.5
3412.84	24
3413.63	22.5
3414.41	26
3415.19	22.5
3415.98	23
3416.76	25.5
3417.54	22.5
3418.32	23
3419.11	26.5
3419.89	25
3420.67	23
3421.46	23
3422.24	21
3423.02	25
3423.8	25
3424.58	20.5
3425.37	24.5
3426.15	21
3426.93	27.5
3427.71	23
3428.49	23.5
3429.27	26.5
3430.06	23
3430.84	25.5
3431.62	26.5
3432.4	23
3433.18	25.5
3433.96	22
3434.74	24.5
3435.52	26
3436.3	28
3437.08	26
3437.86	28
3438.64	25.5
3439.42	21
3440.2	20
3440.98	26
3441.76	22.5
3442.54	24
3443.32	24.5
3444.1	27.5
3444.88	22.5
3445.66	27.5
3446.44	23.5
3447.22	22
3448	27
3448.78	26
3449.55	22.5
3450.33	23
3451.11	22
3451.89	21
3452.67	23.5
3453.45	24.5
3454.22	22.5
3455	21
3455.78	23.5
3456.56	21
3457.33	21
3458.11	26
3458.89	20
3459.67	25
3460.44	20
3461.22	24.5
3462	21.5
3462.77	25.5
3463.55	24.5
3464.33	22
3465.1	27.5
3465.88	24
3466.66	26
3467.43	20.5
3468.21	26
3468.99	24
3469.76	22
3470.54	25
3471.31	20.5
3472.09	26.5
3472.86	26.5
3473.64	24.5
3474.41	23.5
3475.19	23
3475.96	22
3476.74	24.5
3477.51	22.5
3478.29	24
3479.06	25
3479.84	24
3480.61	26
3481.39	25.5
3482.16	22.5
3482.93	22.5
3483.71	23
3484.48	23.5
3485.26	21
3486.03	25
3486.8	25
3487.58	23.5
3488.35	23
3489.12	20
3489.9	26.5
3490.67	17
3491.44	23
3492.21	23.5
3492.99	20
3493.76	23.5
3494.53	19.5
3495.3	24
3496.08	25
3496.85	23.5
3497.62	24
3498.39	25
3499.16	23.5
3499.94	24.5
