#Acq. time (s)=	5
#Accumulations=	5
#Range (cm-¹)=	100...3500
#Windows=	4
#Autofocus=	Off
#AutoExposure=	Off
#Spike filter=	Multiple accum.
#Delay time (s)=	0
#Binning=	1
#Readout mode=	Signal
#DeNoise=	Off
#ICS correction=	Off
#Dark correction=	Off
#Inst. Process=	Off
#Instrument=	LabRAM HR Evol
#Detector=	Syncerity OE
#Objective=	x100_VIS
#Grating=	600 (500nm)
#ND Filter=	25%
#Laser=	633nm_Edge
#Hole=	100.021
#Range=	Visible
#Project=	verificaciones
#Sample=	a3
#Site=	plain
#Title=	bolusa3plain
#Remark=	
#Date=	12.01.2026 16:02
#Acquired=	12.01.2026 16:02:36
100.666	24.5
101.95	32.5
103.233	32
104.516	29
105.799	30
107.083	30.5
108.365	30
109.648	28
110.93	29
112.212	32
113.493	29
114.775	26
116.056	32
117.337	30
118.618	33
119.898	31
121.178	28.5
122.459	32
123.739	35
125.018	31.5
126.298	25.5
127.577	28
128.856	32.5
130.135	28.5
131.414	28.5
132.692	27
133.971	33
135.249	31
136.525	34
137.803	36
139.08	33.5
140.357	36
141.634	36.5
142.911	30
144.188	36
145.464	34
146.74	35
148.015	36.5
149.291	35
150.566	38.5
151.842	36.5
153.117	35
154.392	37.5
155.665	36
156.939	34
158.214	37
159.488	36.5
160.76	41.5
162.034	37.5
163.307	39
164.581	36.5
165.854	35.5
167.125	38.5
168.398	32
169.67	34.5
170.941	30.5
172.213	37
173.485	34
174.756	38.5
176.026	36.5
177.298	37.5
178.569	38
179.838	39
181.109	31
182.379	34
183.648	35
184.918	33
186.187	42
187.455	37
188.725	41
189.992	34.5
191.261	36.5
192.53	39.5
193.797	38
195.065	41
196.332	39
197.6	38.5
198.866	32
200.134	37
201.401	34
202.667	31.5
203.933	31.5
205.199	36
206.465	32
207.73	35
208.996	30.5
210.26	39
211.526	37.5
212.79	32.5
214.055	33.5
215.319	27
216.582	31.5
217.847	34.5
219.11	31.5
220.374	31.5
221.636	33.5
222.9	27
224.162	30
225.424	29.5
226.687	36
227.949	31
229.212	33
230.473	28
231.734	32.5
232.996	29
234.256	26
235.517	29.5
236.778	29
238.038	27.5
239.298	30
240.559	23
241.818	27
243.077	28.5
244.337	27.5
245.596	30
246.854	29
248.113	29
249.372	25.5
250.63	33.5
251.887	26.5
253.145	27.5
254.404	29
255.661	27
256.917	29
258.174	26
259.432	27.5
260.688	27
261.944	31
263.2	26.5
264.456	26
265.711	30
266.968	29.5
268.223	28
269.477	29.5
270.732	31.5
271.986	29.5
273.24	26
274.494	26.5
275.748	26
277.003	26
278.257	28.5
279.51	27
280.763	29
282.015	27
283.268	27.5
284.52	26.5
285.773	28.5
287.024	21.5
288.276	30
289.528	29
290.779	29
292.03	25.5
293.281	27
294.532	23.5
295.782	29.5
297.033	26
298.283	21
299.533	27
300.783	26
302.032	28
303.281	27
304.531	27.5
305.78	27.5
307.028	28.5
308.275	27
309.524	26
310.772	27
312.02	26.5
313.267	27.5
314.515	25
315.762	28
317.009	27
318.255	26
319.501	28
320.748	26
321.994	28
323.24	28
324.486	28.5
325.731	27.5
326.976	26
328.221	27
329.466	28
330.71	26.5
331.955	29.5
333.199	26.5
334.443	28
335.686	24
336.93	31
338.174	27
339.417	22.5
340.659	27.5
341.902	29.5
343.145	30.5
344.386	28.5
345.629	22
346.871	25
348.112	29
349.354	29
350.595	26.5
351.836	27
353.077	29.5
354.318	28
355.557	25.5
356.798	27
358.037	24.5
359.277	22.5
360.518	25
361.756	23
362.996	26
364.234	25.5
365.473	27.5
366.711	25
367.95	30.5
369.187	32
370.426	28.5
371.662	27.5
372.901	31
374.137	26
375.375	31.5
376.611	31
377.848	22
379.084	29.5
380.321	27.5
381.556	31
382.793	26
384.027	24
385.264	28.5
386.498	24
387.732	29.5
388.968	26.5
390.202	30
391.437	27
392.671	30.5
393.904	26
395.138	29
396.371	24
397.604	30
398.838	29
400.07	28.5
401.302	29
402.536	27
403.768	26
404.999	25
406.232	26.5
407.463	32
408.694	28
409.925	26.5
411.157	26
412.387	28.5
413.617	28
414.847	27.5
416.078	25
417.308	22.5
418.537	25.5
419.767	27
420.997	28
422.226	29
423.454	24.5
424.683	26
425.911	31.5
427.139	26
428.368	25.5
429.596	26.5
430.823	27
432.05	26.5
433.277	27
434.504	27.5
435.731	21
436.957	29
438.185	28.5
439.411	28
440.637	28
441.862	30.5
443.088	31.5
444.313	27
445.538	27.5
446.763	30
447.988	27.5
449.212	27
450.436	29.5
451.661	23
452.884	25
454.108	28
455.332	28
456.555	25.5
457.778	29.5
459.001	27
460.224	28.5
461.446	27
462.668	30
463.891	29
465.111	31.5
466.333	28
467.554	32.5
468.776	29.5
469.997	30.5
471.218	34.5
472.439	39
473.659	36.5
474.878	40.5
476.098	34.5
477.318	36
478.538	42
479.758	44
480.977	43.5
482.195	49
483.414	47.5
484.633	52
485.851	49.5
487.07	53
488.287	50
489.505	51
490.723	47.5
491.94	51
493.156	52.5
494.374	48
495.591	47.5
496.806	47.5
498.023	44
499.239	41
500.456	40.5
501.67	36
502.886	44.5
504.102	33
505.316	37.5
506.531	38
507.745	36.5
508.96	31
510.175	36.5
511.388	32
512.602	32.5
513.815	31
515.029	29.5
516.243	32
517.455	32.5
518.669	31
519.88	33
521.093	33
522.305	28
523.518	29
524.729	34
525.941	28.5
527.151	32
528.363	30
529.574	27
530.785	31
531.995	29.5
533.206	22
534.416	28.5
535.626	29.5
536.835	25.5
538.046	31.5
539.254	26
540.463	26
541.673	26
542.881	28.5
544.09	30
545.298	27
546.506	30
547.714	29.5
548.922	24
550.13	30
551.337	30
552.544	30.5
553.751	32
554.958	28
556.164	26
557.37	30
558.577	27
559.782	30.5
560.987	26
562.194	26
563.399	29
564.604	30.5
565.808	23
567.014	32.5
568.218	27
569.422	30
570.626	25.5
571.829	28.5
573.034	28
574.237	25.5
575.44	27.5
576.643	28
577.846	27.5
579.048	25
580.252	27.5
581.454	27.5
582.656	28
583.857	25.5
585.059	26.5
586.26	29.5
587.461	31
588.662	26.5
589.863	29.5
591.065	28
592.265	24.5
593.465	23
594.665	27
595.865	29.5
597.065	32.5
598.264	26
599.463	27.5
600.662	26
601.861	27.5
603.06	24.5
604.258	27
605.457	29
606.655	28
607.853	24.5
609.05	30
610.248	30
611.444	30
612.641	27.5
613.838	33
615.034	25.5
616.231	29
617.427	31
618.624	31
619.82	29
621.015	28.5
622.21	27
623.405	31.5
624.6	24
625.795	27
626.99	28
628.185	31.5
629.378	31
630.572	27.5
631.766	31
632.96	25
634.154	23
635.346	27
636.54	27.5
637.733	27.5
638.926	27
640.117	30.5
641.31	27.5
642.502	27
643.693	25
644.885	29.5
646.077	30
647.267	32
648.459	28.5
649.65	27.5
650.84	32.5
652.031	31
653.222	24.5
654.411	31
655.601	31
656.791	27.5
657.98	28.5
659.17	26
660.358	30
661.547	29
662.737	29
663.924	30
665.113	28
666.3	30
667.489	30.5
668.676	29
669.864	30.5
671.05	29
672.238	27.5
673.424	26
674.612	27
675.798	31.5
676.985	31
678.17	29
679.357	32.5
680.542	30.5
681.728	33.5
682.913	36
684.097	33
685.283	32
686.467	30
687.652	35.5
688.836	28.5
690.02	34.5
691.205	33.5
692.388	32
693.571	36.5
694.755	36
695.938	35
697.12	34.5
698.304	33.5
699.486	32
700.668	35
701.851	37.5
703.032	36.5
704.214	37
705.395	42
706.577	46
707.758	47.5
708.939	41
710.119	41.5
711.301	36
712.481	37.5
713.661	36.5
714.84	34.5
716.02	32
717.201	33.5
718.38	26.5
719.559	31
720.737	25
721.916	31.5
723.094	28.5
724.274	28
725.452	27
726.63	26.5
727.808	28
728.985	29
730.162	25
731.339	24
732.516	26.5
733.693	26.5
734.87	29
736.046	32
737.222	30.5
738.398	27
739.574	25
740.75	30
741.925	27
743.1	23
744.276	29
745.45	28.5
746.625	32
747.8	28.5
748.974	26
750.148	25
751.322	25
752.496	23.5
753.67	27
754.843	31.5
756.016	24
757.189	24
758.362	27.5
759.534	27.5
760.706	24.5
761.878	27.5
763.051	30
764.223	30
765.394	27
766.565	29
767.736	25.5
768.907	30
770.078	26.5
771.249	30
772.419	27
773.589	28
774.759	26.5
775.93	30.5
777.098	24
778.268	30
779.438	27.5
780.607	28
781.775	27.5
782.944	26
784.113	28
785.28	25
786.449	31
787.617	30
788.784	30.5
789.952	30
791.12	30
792.286	29
793.453	29
794.62	27.5
795.786	28
796.953	28.5
798.118	32
799.285	29.5
800.45	19
801.616	30
802.782	29
803.946	27.5
805.112	29.5
806.276	25.5
807.441	27.5
808.605	27.5
809.77	31.5
810.933	27
812.098	26
813.261	27
814.425	28.5
815.588	28
816.75	26
817.914	28
819.076	26
820.239	30.5
821.401	28.5
822.564	25.5
823.725	24
824.886	28.5
826.048	28.5
827.209	29
828.37	29
829.532	25.5
830.692	24.5
831.852	29
833.013	29
834.173	28.5
835.333	29
836.493	26.5
837.653	28.5
838.812	24
839.972	31
841.13	25
842.289	28
843.447	29.5
844.607	29.5
845.765	31
846.922	23.5
848.08	30.5
849.237	29
850.396	28.5
851.553	23.5
852.71	29
853.867	26.5
855.023	27.5
856.179	28
857.337	29.5
858.493	24.5
859.649	31
860.804	25.5
861.96	29.5
863.115	30.5
864.27	29.5
865.425	28
866.58	30.5
867.734	28
868.888	30
870.043	22
871.197	28.5
872.35	28.5
873.504	27
874.658	32
875.811	27
876.964	28.5
878.117	26
879.27	27
880.422	27
881.575	31.5
882.727	25
883.879	27
885.031	24
886.182	25
887.334	25
888.485	25
889.636	25
890.787	24
891.937	24.5
893.088	29
894.238	27.5
895.388	27
896.538	27.5
897.688	27.5
898.837	27
899.986	25.5
901.136	29
902.285	27
903.434	26
904.581	25.5
905.73	27
906.878	27.5
908.027	26.5
909.174	25
910.321	26.5
911.469	26.5
912.617	28
913.763	25.5
914.91	31.5
916.057	29
917.203	23.5
918.35	28.5
919.496	29
920.641	25
921.787	27
922.933	24
924.078	25.5
925.224	29
926.368	23.5
927.513	24
928.658	28
929.802	25.5
930.946	28
932.09	23
933.234	25
934.377	27
935.521	25
936.664	21.5
937.807	23
938.95	26
940.093	25
941.235	27
942.378	25
943.519	27
944.662	24.5
945.803	28
946.946	25
948.086	28
949.227	23
950.369	26
951.509	21
952.651	24.5
953.79	25
954.93	25.5
956.071	27.5
957.211	24.5
958.35	26.5
959.49	27
960.629	23.5
961.768	23
962.908	26.5
964.046	27
965.184	26
966.323	26.5
967.461	25
968.599	24
969.736	25
970.875	25.25
972.012	25.5
973.149	25.5
974.286	25.5
975.424	26
976.56	23.5
977.697	25
978.833	26.5
979.969	27
981.104	26
982.241	33
983.377	26
984.512	26
985.647	24.5
986.782	22
987.916	23
989.051	26.5
990.185	26
991.321	23.5
992.455	25
993.589	27.5
994.722	25
995.856	24
996.989	25
998.122	25
999.255	27
1000.39	22.5
1001.52	27.5
1002.65	27
1003.79	25.5
1004.92	22
1006.05	24.5
1007.18	24.5
1008.31	25.5
1009.44	32
1010.57	27
1011.7	26
1012.84	29
1013.97	27
1015.1	27
1016.23	25
1017.36	28
1018.49	28
1019.62	24
1020.75	31
1021.88	27
1023	27.5
1024.13	24.5
1025.26	25.5
1026.39	28
1027.52	25
1028.65	23.5
1029.78	22.5
1030.9	26.5
1032.03	27
1033.16	25
1034.29	32.5
1035.41	26.5
1036.54	24
1037.67	26
1038.79	26
1039.92	28.5
1041.04	22.5
1042.17	28
1043.3	25
1044.42	24
1045.55	23
1046.67	26.5
1047.8	27.5
1048.92	27.5
1050.05	24
1051.17	23
1052.3	29
1053.42	28.5
1054.54	27
1055.67	27.5
1056.79	25
1057.91	25
1059.04	26
1060.16	23.5
1061.28	22
1062.41	27
1063.53	27.5
1064.65	25.5
1065.77	24.5
1066.9	25.5
1068.02	27.5
1069.14	26
1070.26	26.5
1071.38	26.5
1072.5	27.5
1073.62	27
1074.74	26.5
1075.86	26
1076.98	23.5
1078.1	26.5
1079.22	27.5
1080.34	24.5
1081.46	22.5
1082.58	26.5
1083.7	28.5
1084.82	21.5
1085.94	24
1087.06	23
1088.18	25
1089.29	24.5
1090.41	24.5
1091.53	27
1092.65	25.5
1093.77	28.5
1094.88	27
1096	28
1097.12	28.5
1098.23	25.5
1099.35	26
1100.47	26
1101.58	24.5
1102.7	25
1103.82	26.5
1104.93	27.5
1106.05	26
1107.16	23
1108.28	23.5
1109.39	25.5
1110.51	26
1111.62	23.5
1112.74	23.5
1113.85	23
1114.96	30
1116.08	28
1117.19	24
1118.31	22
1119.42	25
1120.53	24.5
1121.65	25
1122.76	26
1123.87	27
1124.98	24
1126.1	22
1127.21	26.5
1128.32	26.5
1129.43	25
1130.54	22
1131.65	23.5
1132.76	27.5
1133.88	26
1134.99	22
1136.1	24
1137.21	25
1138.32	22.5
1139.43	25.5
1140.54	23
1141.65	26.5
1142.76	28
1143.87	24.5
1144.98	21
1146.08	27.5
1147.19	27
1148.3	23.5
1149.41	27.5
1150.52	24
1151.63	31
1152.73	23.5
1153.84	27
1154.95	27.5
1156.06	24
1157.17	28
1158.27	25.5
1159.38	24
1160.49	26.5
1161.59	25.5
1162.7	23.5
1163.8	26
1164.91	24.5
1166.02	20
1167.12	23.5
1168.23	27
1169.33	24.5
1170.44	27
1171.54	26
1172.65	24.5
1173.75	24
1174.86	26.5
1175.96	22
1177.06	25
1178.17	25.5
1179.27	25
1180.37	23
1181.48	20.5
1182.58	23
1183.68	24.5
1184.79	23
1185.89	27.5
1186.99	24.5
1188.09	27
1189.2	18.5
1190.3	24
1191.4	23
1192.5	27.5
1193.6	25.5
1194.7	20.0165
1195.8	20.5482
1196.9	21.612
1198.01	23.9753
1199.11	26.5206
1200.21	23.2668
1201.31	24.9053
1202.41	21.6266
1203.5	25.2181
1204.6	18.3924
1205.7	25.0902
1206.8	24.8711
1207.9	26.1479
1209	27.3776
1210.1	23.1802
1211.2	25.0893
1212.3	24.2283
1213.39	21.9257
1214.49	24.5367
1215.59	24.1846
1216.69	26.7293
1217.78	25.5745
1218.88	22.9453
1219.98	24.2282
1221.08	23.4211
1222.17	22.4235
1223.27	22.4391
1224.37	23.8665
1225.46	24.6153
1226.56	25.6745
1227.65	22.9152
1228.75	24.5176
1229.84	23.2375
1230.94	23.3576
1232.03	24.1476
1233.13	24.1415
1234.22	23.6335
1235.32	23.2665
1236.41	23.4572
1237.51	26.2511
1238.6	24.7226
1239.69	23.2002
1240.79	24.176
1241.88	23.7886
1242.97	23.8527
1244.07	25.392
1245.16	24.7029
1246.25	22.7265
1247.35	22.6666
1248.44	22.0256
1249.53	23.8512
1250.62	24.0188
1251.71	22.5335
1252.81	25.8877
1253.9	23.209
1254.99	28.2306
1256.08	26.1307
1257.17	26.7001
1258.26	23.9132
1259.35	25.7004
1260.44	25.7933
1261.53	26.0898
1262.62	28.9565
1263.71	24.839
1264.8	26.4366
1265.89	24.3731
1266.98	21.97
1268.07	27.1845
1269.16	26.7849
1270.25	23.6654
1271.34	22.5087
1272.43	23.8116
1273.52	23.1287
1274.6	23.9221
1275.69	26.6761
1276.78	24.1803
1277.87	22.7427
1278.95	23.9996
1280.04	22.5346
1281.13	23.3422
1282.22	24.398
1283.3	27.2791
1284.39	24.9586
1285.48	25.5585
1286.56	25.4612
1287.65	25.1599
1288.73	22.4406
1289.82	24.2121
1290.91	24.6645
1291.99	25.3803
1293.08	23.4706
1294.16	22.2791
1295.24	24.6456
1296.33	24.998
1297.41	27.2948
1298.5	26.3692
1299.58	21.7406
1300.67	24.9047
1301.75	24.7714
1302.83	25.3848
1303.92	24.5188
1305	26.4409
1306.08	23.5795
1306.4	22
1307.49	22.5
1308.58	23
1309.66	26
1310.75	21.5
1311.84	23
1312.93	25
1314.01	25
1315.1	22.5
1316.19	27.5
1317.27	23.5
1318.36	23.5
1319.45	22.5
1320.53	24
1321.62	22.5
1322.71	25
1323.79	26.5
1324.88	22
1325.96	22
1327.05	26.5
1328.13	25
1329.22	24.5
1330.3	28.5
1331.39	26.5
1332.47	26
1333.55	20
1334.64	23.5
1335.72	29
1336.81	24.5
1337.89	21
1338.97	29
1340.06	27
1341.14	24.5
1342.22	28.5
1343.3	24
1344.39	21
1345.47	24.5
1346.55	27.5
1347.63	23
1348.71	22
1349.8	25
1350.88	25.5
1351.96	24.5
1353.04	28.5
1354.12	22.5
1355.2	20
1356.28	22
1357.36	24
1358.44	26.5
1359.52	24
1360.6	25
1361.68	26
1362.76	21
1363.84	23
1364.92	26.5
1366	22.5
1367.08	25.5
1368.16	23
1369.23	27
1370.31	24.5
1371.39	26.5
1372.47	27.5
1373.55	23.5
1374.62	25
1375.7	19.5
1376.78	25
1377.86	26
1378.93	21
1380.01	23.5
1381.09	25.5
1382.16	25.5
1383.24	26
1384.32	25.5
1385.39	25
1386.47	26.5
1387.54	23
1388.62	28
1389.69	22
1390.77	26.5
1391.84	29
1392.92	26
1393.99	24.5
1395.07	26
1396.14	26
1397.21	27
1398.29	30
1399.36	30.5
1400.44	24.5
1401.51	28
1402.58	27
1403.66	29
1404.73	29
1405.8	28.5
1406.87	26
1407.95	26
1409.02	28.5
1410.09	31
1411.16	26.5
1412.23	26.5
1413.3	31
1414.38	32
1415.45	30
1416.52	29
1417.59	26
1418.66	29
1419.73	26.5
1420.8	28.5
1421.87	27
1422.94	25
1424.01	26
1425.08	31
1426.15	27
1427.22	29.5
1428.29	26.5
1429.36	28
1430.43	28
1431.49	26.5
1432.56	23.5
1433.63	25
1434.7	27.5
1435.77	27
1436.83	26
1437.9	27
1438.97	25
1440.04	23.5
1441.1	25
1442.17	22.5
1443.24	23
1444.3	28
1445.37	21
1446.44	24
1447.5	24
1448.57	24
1449.63	27
1450.7	26
1451.77	26
1452.83	26
1453.9	25.5
1454.96	23
1456.03	28.5
1457.09	21
1458.15	28
1459.22	26
1460.28	27
1461.35	25
1462.41	24
1463.47	24
1464.54	25
1465.6	26
1466.66	28
1467.73	24.5
1468.79	23
1469.85	26
1470.91	25
1471.98	21.5
1473.04	29
1474.1	22.5
1475.16	27
1476.22	19.5
1477.28	25.5
1478.35	25.5
1479.41	26
1480.47	23
1481.53	29
1482.59	26
1483.65	26.5
1484.71	23
1485.77	25
1486.83	23.5
1487.89	23.5
1488.95	27
1490.01	22.5
1491.07	25
1492.13	27
1493.18	25.5
1494.24	25.5
1495.3	26
1496.36	25
1497.42	20
1498.48	23.5
1499.53	26
1500.59	22.5
1501.65	25
1502.71	25.5
1503.76	26
1504.82	26.5
1505.88	23.5
1506.93	22.5
1507.99	26
1509.05	27
1510.1	31.5
1511.16	27
1512.21	27
1513.27	27.5
1514.33	29
1515.38	24
1516.44	25.5
1517.49	24.5
1518.55	24.5
1519.6	24.5
1520.66	23
1521.71	25
1522.76	26.5
1523.82	25
1524.87	26.5
1525.93	24.5
1526.98	24.5
1528.03	22.5
1529.08	22.5
1530.14	25.5
1531.19	28.5
1532.24	30
1533.3	27.5
1534.35	25
1535.4	25.5
1536.45	27
1537.5	24.5
1538.56	24.5
1539.61	24.5
1540.66	21.5
1541.71	28
1542.76	27.5
1543.81	22
1544.86	24
1545.91	28.5
1546.96	31
1548.01	22.5
1549.06	24.5
1550.11	20
1551.16	28.5
1552.21	22
1553.26	27
1554.31	27.5
1555.36	25.5
1556.41	21
1557.46	25.5
1558.51	25
1559.56	24.5
1560.6	25.5
1561.65	25
1562.7	25.5
1563.75	22.5
1564.79	25.5
1565.84	26
1566.89	23.5
1567.94	26
1568.98	22
1570.03	26
1571.08	22.5
1572.12	29.5
1573.17	29.5
1574.22	25
1575.26	23
1576.31	26
1577.35	25.5
1578.4	24
1579.44	25.5
1580.49	25.5
1581.53	29
1582.58	23
1583.62	26
1584.67	25
1585.71	24.5
1586.76	24.5
1587.8	22
1588.84	24
1589.89	28
1590.93	28
1591.97	24
1593.02	25
1594.06	23
1595.1	24.5
1596.14	29
1597.19	24
1598.23	24
1599.27	23
1600.31	24
1601.36	22.5
1602.4	25
1603.44	23.5
1604.48	25
1605.52	26
1606.56	27
1607.6	24
1608.64	25.5
1609.68	22
1610.72	27.5
1611.76	26
1612.81	28
1613.84	25.5
1614.88	23
1615.92	28
1616.96	25
1618	27
1619.04	26.5
1620.08	26.5
1621.12	25
1622.16	26
1623.2	24.5
1624.23	26
1625.27	20
1626.31	25.5
1627.35	22.5
1628.39	24.5
1629.42	24
1630.46	27.5
1631.5	28
1632.53	26
1633.57	26.5
1634.61	26
1635.64	20.5
1636.68	23
1637.72	25.5
1638.75	30.5
1639.79	23
1640.82	26.5
1641.86	28
1642.89	24.5
1643.93	25
1644.96	24.5
1646	25.5
1647.03	27.5
1648.07	25
1649.1	25
1650.14	25
1651.17	29
1652.21	28
1653.24	27.5
1654.27	24
1655.31	27.5
1656.34	26.5
1657.37	25
1658.41	26
1659.44	25
1660.47	25
1661.5	24
1662.53	26
1663.57	23
1664.6	23
1665.63	27
1666.66	25.5
1667.69	23
1668.72	23
1669.76	23
1670.79	25.5
1671.82	26
1672.85	28
1673.88	26.5
1674.91	26
1675.94	27
1676.97	26.5
1678	27.5
1679.03	25
1680.06	24
1681.09	25
1682.12	19
1683.15	25
1684.17	22.5
1685.2	25.5
1686.23	28
1687.26	28
1688.29	26.5
1689.32	24
1690.34	27
1691.37	25.5
1692.4	27.5
1693.43	24
1694.45	18
1695.48	28
1696.51	28
1697.54	24.5
1698.56	25.5
1699.59	23.5
1700.61	24
1701.64	25
1702.67	25.5
1703.69	23
1704.72	23.5
1705.74	28.5
1706.77	23.5
1707.79	25.5
1708.82	26.5
1709.84	25
1710.87	24
1711.89	25
1712.92	27
1713.94	24.5
1714.97	23
1715.99	27
1717.01	23.5
1718.04	26
1719.06	25
1720.08	28.5
1721.11	26
1722.13	25
1723.15	24
1724.18	24
1725.2	25.5
1726.22	25
1727.24	24.5
1728.26	27
1729.29	28.5
1730.31	25
1731.33	22
1732.35	27.5
1733.37	24
1734.39	29
1735.41	21
1736.43	24
1737.45	24
1738.47	25
1739.5	29
1740.52	27.5
1741.53	24
1742.55	22.5
1743.57	27
1744.59	21
1745.61	26.5
1746.63	27
1747.65	26
1748.67	29.5
1749.69	26.5
1750.71	23
1751.72	23
1752.74	24
1753.76	25.5
1754.78	23.5
1755.8	26
1756.81	25
1757.83	24.5
1758.85	22
1759.87	26
1760.88	25
1761.9	25
1762.92	24.5
1763.93	20.5
1764.95	23.5
1765.96	29
1766.98	23
1768	23.5
1769.01	24.5
1770.03	24
1771.04	25
1772.06	22.5
1773.07	20.5
1774.09	25
1775.1	27.5
1776.12	27
1777.13	21.5
1778.15	27
1779.16	27
1780.17	27.5
1781.19	25
1782.2	22
1783.21	25
1784.23	21.5
1785.24	27.5
1786.25	27
1787.27	25
1788.28	27
1789.29	22.5
1790.3	24.5
1791.32	25
1792.33	26.5
1793.34	28
1794.35	25
1795.36	25.5
1796.38	23.5
1797.39	27.5
1798.4	27.5
1799.41	24
1800.42	23.5
1801.43	24.5
1802.44	26
1803.45	24.5
1804.46	25
1805.47	24
1806.48	21.5
1807.49	26
1808.5	25.5
1809.51	24
1810.52	26.5
1811.53	26
1812.53	26
1813.54	29
1814.55	25.5
1815.56	24.5
1816.57	25
1817.58	27
1818.59	24
1819.59	24.5
1820.6	23
1821.61	23.5
1822.62	23
1823.62	26
1824.63	26
1825.64	27
1826.64	26.5
1827.65	22
1828.66	20
1829.66	27.5
1830.67	22
1831.67	25.5
1832.68	27
1833.69	25
1834.69	23.5
1835.7	23.5
1836.7	25.5
1837.71	26
1838.71	25
1839.72	25
1840.72	23
1841.72	21
1842.73	23
1843.73	26
1844.74	25
1845.74	23.5
1846.74	21
1847.75	26
1848.75	22.5
1849.75	26.5
1850.76	28
1851.76	24
1852.76	26
1853.76	24
1854.77	28
1855.77	23
1856.77	25.5
1857.77	25.5
1858.78	23.5
1859.78	27
1860.78	22
1861.78	22.5
1862.78	25.5
1863.78	22.5
1864.78	25
1865.78	26
1866.78	20.5
1867.78	22.5
1868.78	21
1869.78	26
1870.78	28
1871.78	25
1872.78	26
1873.78	24
1874.78	26.5
1875.78	21.5
1876.78	25
1877.78	22.5
1878.78	25
1879.78	23
1880.77	29
1881.77	22
1882.77	26.5
1883.77	29
1884.77	25
1885.76	21.5
1886.76	24.5
1887.76	21.5
1888.75	25.5
1889.75	27
1890.75	24.5
1891.74	26.5
1892.74	24.5
1893.74	22
1894.73	25
1895.73	25.5
1896.73	25.5
1897.72	22
1898.72	23.5
1899.71	25.5
1900.71	24.5
1901.7	23.5
1902.7	27
1903.69	27
1904.69	25
1905.68	25
1906.68	22.5
1907.67	24
1908.66	25.5
1909.66	22.5
1910.65	25
1911.64	24
1912.64	22
1913.63	24
1914.62	23
1915.62	25.5
1916.61	24
1917.6	27
1918.6	20.5
1919.59	22.5
1920.58	22.5
1921.57	27
1922.56	24.5
1923.55	22
1924.55	21.5
1925.54	24
1926.53	24
1927.52	31
1928.51	25
1929.5	23.5
1930.49	21.5
1931.48	25.5
1932.47	24.5
1933.46	24.5
1934.45	23
1935.44	24
1936.43	26
1937.42	31
1938.41	26.5
1939.4	20
1940.39	21.5
1941.38	27
1942.37	19.5
1943.36	21
1944.35	25.5
1945.33	23.5
1946.32	23.5
1947.31	24.5
1948.3	24.25
1949.29	24
1950.27	25
1951.26	23
1952.25	25
1953.24	26.5
1954.22	24
1955.21	23
1956.2	23.5
1957.18	26
1958.17	29
1959.16	25
1960.14	26
1961.13	24.5
1962.11	24.5
1963.1	19
1964.08	26.5
1965.07	24.5
1966.05	25
1967.04	25
1968.02	21
1969.01	24.5
1969.99	26
1970.98	24
1971.96	19
1972.95	23.5
1973.93	20.5
1974.91	24.5
1975.9	24
1976.88	24
1977.86	25.5
1978.85	22
1979.83	27
1980.81	25.5
1981.8	26
1982.78	24.5
1983.76	23
1984.74	25.5
1985.73	26.5
1986.71	25
1987.69	21
1988.67	25.5
1989.65	20.5
1990.63	19
1991.62	24.5
1992.6	24
1993.58	22
1994.56	27
1995.54	21
1996.52	22.5
1997.5	25
1998.48	23.5
1999.46	23
2000.44	21
2001.42	25.5
2002.4	22.5
2003.38	25.5
2004.36	25
2005.34	23.5
2006.32	25
2007.29	20.5
2008.27	21
2009.25	22.5
2010.23	22
2011.21	20
2012.19	25.5
2013.17	25
2014.14	26
2015.12	24
2016.1	21
2017.07	24
2018.05	25
2019.03	23.5
2020.01	21.5
2020.98	24.5
2021.96	25.5
2022.94	23
2023.91	22.5
2024.89	25.5
2025.86	27.5
2026.84	21.5
2027.82	25
2028.79	23
2029.77	21.5
2030.74	25.5
2031.72	18
2032.69	26.5
2033.67	27
2034.64	25
2035.62	26.5
2036.59	22.5
2037.56	23
2038.54	23.5
2039.51	21.5
2040.49	25.5
2041.46	22
2042.43	21
2043.41	24
2044.38	25.5
2045.35	23.5
2046.32	22.5
2047.3	26.5
2048.27	23.5
2049.24	23
2050.21	21
2051.19	23.5
2052.16	22
2053.13	22
2054.1	22.5
2055.07	26.5
2056.05	23
2057.02	19.5
2057.99	24.5
2058.96	24.5
2059.93	24
2060.9	23
2061.87	25
2062.84	23.5
2063.81	24.5
2064.78	22
2065.75	24
2066.72	18.5
2067.69	25
2068.66	23
2069.63	21.5
2070.6	22.5
2071.57	23
2072.54	26
2073.5	24.5
2074.47	22.5
2075.44	25.5
2076.41	22.5
2077.38	22.5
2078.35	23.5
2079.31	24.5
2080.28	25
2081.25	24
2082.22	22
2083.18	23
2084.15	26
2085.12	23
2086.08	26
2087.05	24.5
2088.02	25.5
2088.98	25
2089.95	24
2090.92	24.5
2091.88	23.5
2092.85	22
2093.81	23.5
2094.78	21
2095.74	22
2096.71	23.5
2097.67	20.5
2098.64	19
2099.6	24
2100.57	21.5
2101.53	28
2102.5	22
2103.46	21.5
2104.42	21
2105.39	24
2106.35	22
2107.32	24
2108.28	21
2109.24	24.5
2110.21	26.5
2111.17	25.5
2112.13	22.5
2113.09	23
2114.06	19
2115.02	22.5
2115.98	26
2116.94	22.5
2117.91	25
2118.87	22
2119.83	25
2120.79	26
2121.75	20
2122.71	24
2123.67	20
2124.63	21.5
2125.6	24
2126.56	24.5
2127.52	27
2128.48	23
2129.44	24.5
2130.4	24
2131.36	22
2132.32	22.5
2133.28	25.5
2134.23	22
2135.19	25.5
2136.15	22
2137.11	25.5
2138.07	23
2139.03	22
2139.99	26
2140.95	24.5
2141.9	24.5
2142.86	21.988
2143.82	18.5021
2144.78	22.5252
2145.74	22.0885
2146.69	22.555
2147.65	22.1539
2148.61	24.9529
2149.57	23.2256
2150.52	20.1552
2151.48	25.477
2152.44	20.7051
2153.39	22.9931
2154.35	18.9097
2155.31	22.8277
2156.26	21.9044
2157.22	21.5599
2158.17	24.9707
2159.13	22.4109
2160.08	20.3761
2161.04	23.2412
2161.99	21.4075
2162.95	20.6044
2163.91	21.674
2164.86	22.0593
2165.81	22.8815
2166.77	23.0286
2167.72	20.7054
2168.68	25.2181
2169.63	24.5084
2170.58	26.9089
2171.54	24.018
2172.49	24.0261
2173.45	23.5801
2174.4	20.9112
2175.35	24.2167
2176.31	21.3609
2177.26	23.7706
2178.21	23.9248
2179.16	22.697
2180.12	22.8577
2181.07	25.6389
2182.02	21.1309
2182.97	23.0278
2183.92	23.3429
2184.88	22.0608
2185.83	17.4763
2186.78	22.3175
2187.73	22.7993
2188.68	25.6796
2189.63	24.9852
2190.58	23.917
2191.53	19.7926
2192.49	21.0055
2193.43	23.1709
2194.39	22.2505
2195.34	20.7711
2196.28	24.2574
2197.24	22.0673
2198.19	20.1319
2199.13	23.3316
2200.08	21.5704
2201.03	20.8089
2201.98	24.9308
2202.93	23.4744
2203.88	21.7958
2204.83	24.6807
2205.78	21.5581
2206.73	21.5142
2207.67	25.7619
2208.62	23.806
2209.57	22.3422
2210.52	21.5825
2211.47	22.5718
2212.41	22.7934
2213.36	20.7935
2214.31	22.8945
2215.26	21.356
2216.2	23.5246
2217.15	21.3272
2218.1	22.3461
2219.04	23.5763
2219.99	21.2631
2220.93	21.5906
2221.88	23.4838
2222.83	23.9102
2223.77	20.5806
2224.72	23.2877
2225.66	22.6184
2226.61	22.6381
2227.55	25.2636
2228.5	23.7169
2229.44	24.5045
2230.39	22.6662
2231.33	24.0987
2232.28	22.8762
2233.22	25.0769
2234.17	22.885
2235.11	22.7416
2236.06	23.7665
2237	21.6558
2237.94	22.9463
2238.89	22.0125
2239.83	22.6295
2240.06	23
2241.01	25
2241.96	21
2242.9	23
2243.85	20
2244.8	22
2245.75	20
2246.69	25
2247.64	25.5
2248.59	23.5
2249.53	18.5
2250.48	27
2251.43	25
2252.37	22.5
2253.32	23
2254.27	26.5
2255.21	24
2256.16	21.5
2257.1	21.5
2258.05	19.5
2259	22
2259.94	25.5
2260.89	21.5
2261.83	23
2262.78	20
2263.72	22
2264.67	25
2265.61	26
2266.56	22
2267.5	21.5
2268.44	26
2269.39	23
2270.33	21.5
2271.27	29
2272.22	24.5
2273.16	22.5
2274.1	23.5
2275.05	24.5
2275.99	24
2276.93	21.5
2277.88	26
2278.82	21
2279.76	25.5
2280.7	24
2281.65	25
2282.59	23
2283.53	19.5
2284.47	22
2285.41	23
2286.35	19.5
2287.29	23
2288.24	25.5
2289.18	22.5
2290.12	22
2291.06	22.5
2292	24
2292.94	26
2293.88	20.5
2294.82	24.5
2295.76	23.5
2296.7	25
2297.64	21
2298.58	22
2299.52	20
2300.46	22.5
2301.4	21
2302.34	23.5
2303.28	23.5
2304.21	23
2305.15	20.5
2306.09	23
2307.03	25
2307.97	21
2308.91	22
2309.84	22.5
2310.78	23.5
2311.72	23
2312.66	24
2313.59	24.5
2314.53	24.5
2315.47	23
2316.4	22
2317.34	21.5
2318.28	22
2319.22	20.5
2320.15	22
2321.09	24
2322.02	24
2322.96	22
2323.89	24.5
2324.83	22
2325.77	27
2326.7	22.5
2327.64	21.5
2328.57	24.5
2329.51	21.5
2330.44	25.5
2331.38	23
2332.31	22
2333.25	24.5
2334.18	26.5
2335.11	26
2336.05	23
2336.98	24.5
2337.92	25
2338.85	23.5
2339.78	21.5
2340.72	23.5
2341.65	24
2342.58	22
2343.52	24
2344.45	27
2345.38	25
2346.31	25
2347.25	23.5
2348.18	20
2349.11	23.5
2350.04	22.5
2350.97	25
2351.9	22.5
2352.84	25
2353.77	22
2354.7	20.5
2355.63	25
2356.56	24
2357.49	22.5
2358.42	24.5
2359.35	24
2360.28	27
2361.21	22.5
2362.14	26
2363.07	26.5
2364	22
2364.93	20
2365.86	22
2366.79	22
2367.72	24.5
2368.65	27.5
2369.58	21.5
2370.51	22.5
2371.44	21
2372.36	23.5
2373.29	24
2374.22	24
2375.15	24.5
2376.08	26.5
2377.01	25
2377.93	26
2378.86	26.5
2379.79	23
2380.72	24.5
2381.64	18.5
2382.57	23
2383.5	23
2384.42	21
2385.35	19
2386.28	25
2387.2	21.5
2388.13	22.5
2389.06	23
2389.98	22.5
2390.91	21
2391.83	21
2392.76	23
2393.69	24
2394.61	23
2395.54	25
2396.46	24.5
2397.39	23
2398.31	22
2399.23	20.5
2400.16	22
2401.08	24.5
2402.01	25
2402.93	21.5
2403.86	28.5
2404.78	24
2405.7	25.5
2406.63	22.5
2407.55	23
2408.47	23
2409.4	21.5
2410.32	21.5
2411.24	19
2412.17	24
2413.09	26
2414.01	21
2414.93	19.5
2415.85	21
2416.78	25
2417.7	23.5
2418.62	21
2419.54	24.5
2420.46	22.5
2421.38	20.5
2422.31	26.5
2423.23	25
2424.15	23
2425.07	23
2425.99	25
2426.91	27.5
2427.83	20
2428.75	27.5
2429.67	23
2430.59	21
2431.51	24
2432.43	21.5
2433.35	19
2434.27	23
2435.19	22.5
2436.11	22
2437.03	26.5
2437.94	20
2438.86	22.5
2439.78	23.5
2440.7	23
2441.62	22
2442.54	20
2443.46	20.5
2444.37	26
2445.29	24.5
2446.21	26
2447.13	20.5
2448.04	24
2448.96	22
2449.88	21.5
2450.8	25.5
2451.71	23
2452.63	21.5
2453.55	22.5
2454.46	22
2455.38	21.5
2456.29	25
2457.21	23
2458.13	21
2459.04	23
2459.96	22.5
2460.87	25.5
2461.79	25
2462.7	26
2463.62	22
2464.53	25.5
2465.45	26
2466.36	22.5
2467.28	22
2468.19	26.5
2469.11	25
2470.02	23.5
2470.93	26.5
2471.85	24.5
2472.76	25
2473.67	24.5
2474.59	24
2475.5	24.5
2476.42	24
2477.33	17
2478.24	23
2479.15	28
2480.07	22.5
2480.98	24
2481.89	24
2482.8	26
2483.72	25
2484.63	26
2485.54	24.5
2486.45	24.5
2487.36	22.5
2488.27	22.5
2489.19	24
2490.1	21.5
2491.01	29.5
2491.92	22.5
2492.83	27
2493.74	26
2494.65	25.5
2495.56	24.5
2496.47	26
2497.38	23.5
2498.29	20.5
2499.2	21
2500.11	24
2501.02	25.5
2501.93	24
2502.84	22.5
2503.75	27.5
2504.66	20.5
2505.57	23
2506.47	29
2507.38	21.5
2508.29	20
2509.2	27
2510.11	23.5
2511.02	22
2511.92	27
2512.83	24
2513.74	21
2514.65	23
2515.55	25
2516.46	25.5
2517.37	23
2518.28	24
2519.18	24
2520.09	20
2521	22
2521.9	24.5
2522.81	25
2523.72	25.5
2524.62	23
2525.53	27
2526.43	22.5
2527.34	23.5
2528.24	25
2529.15	26.5
2530.06	28
2530.96	18.5
2531.87	24.5
2532.77	26
2533.68	21
2534.58	26.5
2535.48	25
2536.39	23
2537.29	28.5
2538.2	23.5
2539.1	22.5
2540	22
2540.91	25
2541.81	27
2542.72	25
2543.62	24.5
2544.52	22.5
2545.42	23
2546.33	25.5
2547.23	24
2548.13	24.5
2549.04	21.5
2549.94	24.5
2550.84	21.5
2551.74	22
2552.64	23.5
2553.55	22
2554.45	28.5
2555.35	21
2556.25	26.5
2557.15	28.5
2558.05	25.5
2558.95	25
2559.85	24
2560.76	26
2561.66	26.5
2562.56	25
2563.46	24
2564.36	23
2565.26	22.5
2566.16	24
2567.06	26
2567.96	24
2568.86	25.5
2569.76	26
2570.66	23.5
2571.55	24.5
2572.45	21
2573.35	25
2574.25	25
2575.15	27
2576.05	22.5
2576.95	29.5
2577.84	24.5
2578.74	26.5
2579.64	23.5
2580.54	25
2581.44	24.5
2582.33	24.5
2583.23	24
2584.13	23
2585.03	26.5
2585.92	23.5
2586.82	26
2587.72	25.5
2588.61	23.5
2589.51	24.5
2590.41	24
2591.3	28.5
2592.2	22.5
2593.09	24
2593.99	25.5
2594.89	26
2595.78	23
2596.68	24
2597.57	23.5
2598.47	25.5
2599.36	28.5
2600.26	23.5
2601.15	24.5
2602.05	23.5
2602.94	23
2603.84	22.5
2604.73	28.5
2605.63	26
2606.52	23
2607.41	23
2608.31	27
2609.2	24
2610.09	24.5
2610.99	23.5
2611.88	27.5
2612.77	24
2613.67	25
2614.56	27
2615.45	26.5
2616.35	24.5
2617.24	26.5
2618.13	24.5
2619.02	25.5
2619.91	25
2620.81	24.5
2621.7	24.5
2622.59	22
2623.48	22
2624.37	25
2625.26	23
2626.15	22.5
2627.05	26.5
2627.94	23
2628.83	25.5
2629.72	26.5
2630.61	22
2631.5	26.5
2632.39	23
2633.28	24
2634.17	24
2635.06	23
2635.95	26.5
2636.84	22.5
2637.73	26
2638.62	23
2639.51	25.5
2640.4	26
2641.28	24
2642.17	23
2643.06	23
2643.95	22
2644.84	23.5
2645.73	22
2646.62	22.5
2647.5	22
2648.39	26.5
2649.28	23.5
2650.17	25.5
2651.05	24.5
2651.94	27
2652.83	22
2653.72	26.5
2654.6	23.5
2655.49	24
2656.38	24
2657.26	27
2658.15	27
2659.04	22.5
2659.92	26.5
2660.81	25.5
2661.69	24.5
2662.58	23.5
2663.47	25.5
2664.35	24
2665.24	30
2666.12	23.5
2667.01	25.5
2667.89	24
2668.78	23
2669.66	25
2670.55	23
2671.43	24
2672.32	24
2673.2	21
2674.08	22
2674.97	21.5
2675.85	23
2676.74	26
2677.62	25
2678.5	22
2679.39	23
2680.27	25
2681.15	25.5
2682.04	27.5
2682.92	25
2683.8	24
2684.68	24
2685.57	23
2686.45	23
2687.33	23
2688.21	23
2689.09	27
2689.98	25
2690.86	21
2691.74	25
2692.62	29
2693.5	23.5
2694.38	21.5
2695.27	21.5
2696.15	24
2697.03	22
2697.91	25
2698.79	26
2699.67	27
2700.55	26
2701.43	23
2702.31	18.5
2703.19	20
2704.07	28
2704.95	24
2705.83	22
2706.71	26.5
2707.59	22.5
2708.47	24.5
2709.34	28
2710.22	22
2711.1	22
2711.98	26.5
2712.86	22
2713.74	23.5
2714.62	25
2715.49	24
2716.37	28
2717.25	28
2718.13	27
2719.01	27.5
2719.88	22.5
2720.76	21.5
2721.64	27
2722.51	25.5
2723.39	24
2724.27	26
2725.14	23.5
2726.02	26
2726.9	26.5
2727.77	27
2728.65	25.5
2729.53	24
2730.4	25
2731.28	26
2732.15	23
2733.03	26
2733.91	25.5
2734.78	25.5
2735.66	26
2736.53	25
2737.41	23
2738.28	25.5
2739.16	24
2740.03	24
2740.9	24.5
2741.78	20
2742.65	22
2743.53	24
2744.4	23
2745.27	23.5
2746.15	23.5
2747.02	23
2747.89	23.5
2748.77	24.5
2749.64	25.5
2750.51	26.5
2751.39	20
2752.26	22
2753.13	24
2754.01	23
2754.88	24.5
2755.75	23.5
2756.62	22
2757.49	27.5
2758.37	24.5
2759.24	25.5
2760.11	25.5
2760.98	21
2761.85	24.5
2762.72	21.5
2763.59	25
2764.46	25.5
2765.34	25
2766.21	25
2767.08	29
2767.95	25
2768.82	20
2769.69	27
2770.56	22
2771.43	21
2772.3	25.5
2773.17	26
2774.04	26
2774.91	21.5
2775.78	26
2776.65	29.5
2777.51	26
2778.38	24.5
2779.25	27
2780.12	25
2780.99	25.5
2781.86	25
2782.73	29
2783.59	28
2784.46	26.5
2785.33	26
2786.2	23.5
2787.07	23
2787.93	29
2788.8	25
2789.67	23
2790.54	26.5
2791.4	26.5
2792.27	25
2793.14	24
2794	25
2794.87	25
2795.74	27
2796.6	27
2797.47	23.5
2798.34	20.5
2799.2	25
2800.07	20
2800.93	23
2801.8	25.5
2802.66	23
2803.53	24
2804.39	28
2805.26	25.5
2806.12	25
2806.99	28
2807.85	25.5
2808.72	25
2809.58	30
2810.45	25
2811.31	28
2812.18	23.5
2813.04	25.5
2813.9	26.5
2814.77	26
2815.63	24.5
2816.49	25.5
2817.36	24.5
2818.22	26
2819.08	25
2819.95	27
2820.81	29.5
2821.67	25.5
2822.53	28
2823.4	26
2824.26	29
2825.12	25
2825.98	26.5
2826.84	22.5
2827.71	30
2828.57	22
2829.43	29
2830.29	28.5
2831.15	28.5
2832.01	22
2832.88	26.5
2833.74	25
2834.6	28.5
2835.46	25
2836.32	26
2837.18	25
2838.04	25.5
2838.9	25
2839.76	22.5
2840.62	26.5
2841.48	25
2842.34	22.5
2843.2	24.5
2844.06	26
2844.92	24.5
2845.78	25
2846.63	24.5
2847.49	23.5
2848.35	24
2849.21	24.5
2850.07	28.5
2850.93	24
2851.79	28.5
2852.64	27
2853.5	20.5
2854.36	23
2855.22	24
2856.08	29.5
2856.93	26
2857.79	24.5
2858.65	22
2859.51	23
2860.36	24
2861.22	25
2862.08	22
2862.93	27
2863.79	26
2864.65	27.5
2865.5	24
2866.36	27.5
2867.22	28
2868.07	26
2868.93	26.5
2869.78	26
2870.64	27
2871.49	26.5
2872.35	27
2873.21	24
2874.06	30
2874.91	30
2875.77	27.5
2876.62	32
2877.48	29.5
2878.33	29
2879.19	29.5
2880.04	24
2880.9	26.5
2881.75	33
2882.6	31
2883.46	31
2884.31	32.5
2885.17	30.5
2886.02	36
2886.87	32.5
2887.73	35
2888.58	36.5
2889.43	35.5
2890.28	37
2891.14	38
2891.99	36.5
2892.84	43
2893.69	43
2894.55	41.5
2895.4	48
2896.25	39
2897.1	44.5
2897.95	48
2898.8	50
2899.66	57
2900.51	51.5
2901.36	56.5
2902.21	56.5
2903.06	60.5
2903.91	59
2904.76	62
2905.61	64
2906.46	61.5
2907.31	59.5
2908.16	60
2909.01	55.5
2909.86	57
2910.71	58.5
2911.56	48
2912.41	49
2913.26	49
2914.11	40
2914.96	39.5
2915.81	44.5
2916.66	39
2917.51	46
2918.36	37.5
2919.2	32
2920.05	34.5
2920.9	37
2921.75	31
2922.6	31
2923.45	33.5
2924.29	35.5
2925.14	31
2925.99	29
2926.84	31
2927.68	27
2928.53	26
2929.38	27
2930.23	30
2931.07	26.5
2931.92	27.5
2932.77	28
2933.61	24
2934.46	27
2935.3	26.5
2936.15	27
2937	26.5
2937.84	22.5
2938.69	25
2939.53	25.5
2940.38	25.5
2941.23	31
2942.07	27.5
2942.92	30
2943.76	25.5
2944.61	27
2945.45	24
2946.3	24.5
2947.14	31
2947.98	31.5
2948.83	28
2949.67	25.5
2950.52	30.5
2951.36	33.5
2952.2	28.5
2953.05	27
2953.89	29.5
2954.74	32.5
2955.58	34
2956.42	29.5
2957.27	35
2958.11	34
2958.95	36
2959.79	37
2960.64	37
2961.48	38
2962.32	42
2963.16	39
2964.01	43.5
2964.85	44
2965.69	41
2966.53	34
2967.37	42.5
2968.21	41
2969.06	43.5
2969.9	38
2970.74	41
2971.58	33
2972.42	37.4412
2973.26	35.8394
2974.1	32.7052
2974.94	32.4505
2975.78	32.9145
2976.62	29.7851
2977.46	32.3819
2978.3	30.6408
2979.14	33.5855
2979.98	24.9322
2980.82	28.5795
2981.66	30.2279
2982.5	25.2569
2983.34	26.5073
2984.18	26.4302
2985.02	26.8685
2985.86	25.6321
2986.7	27.3179
2987.54	25.55
2988.38	27.5024
2989.21	26.4319
2990.05	24.1764
2990.89	26.524
2991.73	23.1923
2992.57	25.0771
2993.41	26.4307
2994.24	22.3832
2995.08	23.2146
2995.92	24.7136
2996.76	24.9424
2997.59	23.728
2998.43	25.506
2999.27	23.9475
3000.1	22.2997
3000.94	21.3447
3001.78	24.7082
3002.61	23.8956
3003.45	23.7766
3004.29	23.1005
3005.12	24.6467
3005.96	23.4473
3006.8	21.4387
3007.63	25.4183
3008.47	22.9971
3009.3	22.2534
3010.14	25.5755
3010.97	22.1589
3011.81	22.6814
3012.64	22.6583
3013.48	23.2451
3014.31	22.192
3015.15	21.6315
3015.98	23.3171
3016.82	24.4215
3017.65	24.1529
3018.49	22.9256
3019.32	22.7179
3020.16	20.6748
3020.99	20.2939
3021.82	20.7076
3022.66	23.7281
3023.49	20.8026
3024.32	20.608
3025.16	21.8004
3025.99	22.7614
3026.82	22.8032
3027.66	22.6013
3028.49	20.9426
3029.32	22.9552
3030.16	20.0031
3030.99	19.835
3031.82	21.4447
3032.65	22.381
3033.49	23.745
3034.32	23.1421
3035.15	23.3312
3035.98	22.3512
3036.81	23.0569
3037.64	24.1886
3038.48	23.8964
3039.31	22.9711
3040.14	23.0262
3040.97	21.8899
3041.8	22.1098
3042.63	23.0094
3043.46	22.9298
3044.29	22.6253
3045.12	26.0913
3045.95	25.8675
3046.78	22.0177
3047.61	22.1387
3048.44	22.4791
3049.27	23.1684
3050.1	23.4268
3050.93	23.4229
3051.76	23.7457
3052.59	25.015
3053.42	24.5312
3054.25	22.1583
3055.08	20.9063
3055.91	22.9272
3056.74	22.2464
3057.26	21
3058.09	24.5
3058.92	21
3059.76	25
3060.59	21.5
3061.42	22
3062.26	23
3063.09	25
3063.92	22.5
3064.75	22
3065.59	22.5
3066.42	20
3067.25	24.5
3068.08	22.5
3068.91	21
3069.74	28
3070.58	21
3071.41	23
3072.24	25
3073.07	22.5
3073.9	20.5
3074.73	24
3075.56	23
3076.39	20.5
3077.22	20.5
3078.05	23.5
3078.88	20
3079.71	21.5
3080.55	20
3081.38	23
3082.2	25
3083.03	23
3083.86	25.5
3084.69	25.5
3085.52	24.5
3086.35	24
3087.18	19.5
3088.01	24
3088.84	18
3089.67	24.5
3090.5	24.5
3091.33	23.5
3092.15	25
3092.98	24.5
3093.81	27
3094.64	26
3095.47	22.5
3096.29	25
3097.12	23
3097.95	22
3098.78	22
3099.6	24
3100.43	25
3101.26	25.5
3102.09	22
3102.91	24
3103.74	25
3104.57	25.5
3105.39	23
3106.22	24
3107.05	21.5
3107.87	23
3108.7	19
3109.52	25
3110.35	22.5
3111.18	27
3112	21
3112.83	22
3113.65	25
3114.48	22
3115.3	22.5
3116.13	22.5
3116.95	27
3117.78	18
3118.6	21
3119.43	25
3120.25	26.5
3121.08	25
3121.9	21.5
3122.73	23
3123.55	23
3124.37	20.5
3125.2	22
3126.02	21.5
3126.84	22
3127.67	28
3128.49	24
3129.31	21
3130.14	25.5
3130.96	24
3131.78	23
3132.61	27
3133.43	23.5
3134.25	25
3135.07	22.5
3135.9	22
3136.72	25
3137.54	23.5
3138.36	22.5
3139.18	23.5
3140.01	29.5
3140.83	21.5
3141.65	23
3142.47	26.5
3143.29	23
3144.11	25.5
3144.93	25.5
3145.75	25.5
3146.58	23.5
3147.4	24.5
3148.22	25.5
3149.04	24
3149.86	23
3150.68	23.5
3151.5	26
3152.32	22.5
3153.14	21
3153.96	24
3154.78	23
3155.6	24
3156.42	24
3157.23	21
3158.05	21.5
3158.87	21
3159.69	24
3160.51	21.5
3161.33	20.5
3162.15	25
3162.97	26.5
3163.79	19.5
3164.6	23
3165.42	21.5
3166.24	22.5
3167.06	25
3167.88	26.5
3168.69	24.5
3169.51	24
3170.33	26.5
3171.15	20.5
3171.96	21
3172.78	21
3173.6	25
3174.41	22
3175.23	24
3176.05	23
3176.86	23.5
3177.68	20
3178.5	22
3179.31	23
3180.13	23.5
3180.95	25.5
3181.76	22.5
3182.58	22
3183.39	24
3184.21	20
3185.02	23
3185.84	22.5
3186.65	22.5
3187.47	22
3188.28	20.5
3189.1	24.5
3189.91	21
3190.73	21
3191.54	22.5
3192.36	20.5
3193.17	25
3193.99	24.5
3194.8	24
3195.61	22
3196.43	23
3197.24	27
3198.05	25
3198.87	23.5
3199.68	23.5
3200.49	22.5
3201.31	23
3202.12	23.5
3202.93	29.5
3203.75	25
3204.56	21.5
3205.37	24
3206.18	26
3207	22
3207.81	24.5
3208.62	24.5
3209.43	21.5
3210.24	20.5
3211.06	24
3211.87	20
3212.68	26
3213.49	21.5
3214.3	22
3215.11	23.5
3215.92	25
3216.74	27
3217.55	24.5
3218.36	23
3219.17	28.5
3219.98	21.5
3220.79	24
3221.6	21
3222.41	24
3223.22	20.5
3224.03	24
3224.84	21.5
3225.65	24
3226.46	24
3227.27	27
3228.08	24.5
3228.89	28
3229.7	26
3230.5	26
3231.31	21
3232.12	22.5
3232.93	20
3233.74	27.5
3234.55	22
3235.36	24.5
3236.16	27
3236.97	24.5
3237.78	21.5
3238.59	23.5
3239.4	25.5
3240.2	23.5
3241.01	26.5
3241.82	26
3242.63	22.5
3243.43	23
3244.24	27.5
3245.05	25
3245.86	24
3246.66	28
3247.47	27
3248.28	25
3249.08	27
3249.89	23.5
3250.69	26.5
3251.5	22
3252.31	23
3253.11	23.5
3253.92	26
3254.72	23
3255.53	23.5
3256.34	24
3257.14	25
3257.95	24
3258.75	23
3259.56	25.5
3260.36	23
3261.17	24
3261.97	22
3262.77	21.5
3263.58	26
3264.38	24
3265.19	24.5
3265.99	22.5
3266.8	28.5
3267.6	26.5
3268.4	26
3269.21	20
3270.01	27.5
3270.81	20.5
3271.62	28
3272.42	24
3273.22	23.5
3274.03	21
3274.83	23
3275.63	24.5
3276.43	21
3277.24	23
3278.04	26
3278.84	23.5
3279.64	25
3280.45	24.5
3281.25	24
3282.05	23
3282.85	24
3283.65	23.5
3284.46	20.5
3285.26	22
3286.06	23.5
3286.86	27
3287.66	25.5
3288.46	27
3289.26	22
3290.06	25.5
3290.86	20.5
3291.66	22.5
3292.46	26
3293.26	22
3294.06	23.5
3294.86	24.5
3295.66	27
3296.46	23
3297.26	22.5
3298.06	24.5
3298.86	21.5
3299.66	25
3300.46	24
3301.26	26
3302.06	21.5
3302.86	23.5
3303.66	21.5
3304.46	23.5
3305.26	25.5
3306.05	23.5
3306.85	23.5
3307.65	24
3308.45	23.5
3309.25	24.5
3310.04	23.5
3310.84	24.5
3311.64	28
3312.44	24.5
3313.24	24.5
3314.03	22.5
3314.83	27.5
3315.63	22.5
3316.42	21.5
3317.22	22
3318.02	26
3318.82	27.5
3319.61	23
3320.41	22.5
3321.2	24.5
3322	22.5
3322.8	22
3323.59	25
3324.39	23
3325.19	23
3325.98	24.5
3326.78	17.5
3327.57	25
3328.37	22
3329.16	20.5
3329.96	27
3330.75	19
3331.55	19
3332.34	24
3333.14	19
3333.93	25.5
3334.73	23
3335.52	24.5
3336.32	21.5
3337.11	26.5
3337.9	22.5
3338.7	25
3339.49	24
3340.29	23.5
3341.08	25
3341.87	25.5
3342.67	21.5
3343.46	23
3344.25	25.5
3345.05	24
3345.84	25
3346.63	24
3347.42	24
3348.22	21
3349.01	25
3349.8	24.5
3350.59	22.5
3351.39	21.5
3352.18	24
3352.97	23
3353.76	27
3354.55	25
3355.35	27.5
3356.14	27
3356.93	26
3357.72	28
3358.51	25.5
3359.3	22.5
3360.09	23
3360.88	23.5
3361.67	24.5
3362.47	22.5
3363.26	22.5
3364.05	25
3364.84	24.5
3365.63	23
3366.42	22.5
3367.21	25
3368	23
3368.79	23.5
3369.58	25
3370.37	23.5
3371.16	27.5
3371.95	25.5
3372.73	28
3373.52	21.5
3374.31	23.5
3375.1	23
3375.89	25
3376.68	23
3377.47	22.5
3378.26	25.5
3379.04	27
3379.83	27
3380.62	26
3381.41	25.5
3382.2	20
3382.98	22
3383.77	21
3384.56	25
3385.35	22.5
3386.14	23
3386.92	27
3387.71	19
3388.5	22.5
3389.28	20.5
3390.07	19.5
3390.86	23.5
3391.64	24
3392.43	22
3393.22	22
3394	23.5
3394.79	25.5
3395.58	20
3396.36	28
3397.15	22.5
3397.93	24
3398.72	24
3399.5	25.5
3400.29	21.5
3401.07	22.5
3401.86	26
3402.65	25
3403.43	23.5
3404.22	22.5
3405	26
3405.79	24
3406.57	21.5
3407.35	28.5
3408.14	23.5
3408.92	24
3409.71	25
3410.49	23.5
3411.27	23
3412.06	23.5
3412.84	21.5
3413.63	28
3414.41	19.5
3415.19	24.5
3415.98	25.5
3416.76	26.5
3417.54	20
3418.32	28
3419.11	22
3419.89	24.5
3420.67	24
3421.46	26.5
3422.24	24.5
3423.02	25.5
3423.8	26
3424.58	25
3425.37	23
3426.15	23
3426.93	24
3427.71	24.5
3428.49	24.5
3429.27	24
3430.06	23.5
3430.84	22.5
3431.62	25.5
3432.4	24.5
3433.18	24.5
3433.96	23
3434.74	21
3435.52	20.5
3436.3	25.5
3437.08	20.5
3437.86	19
3438.64	26
3439.42	22
3440.2	26.5
3440.98	25
3441.76	17
3442.54	24.5
3443.32	24
3444.1	25.5
3444.88	24.5
3445.66	23
3446.44	22
3447.22	22
3448	27
3448.78	24
3449.55	24
3450.33	18
3451.11	21
3451.89	25.5
3452.67	19.5
3453.45	23.5
3454.22	21
3455	25.5
3455.78	26
3456.56	21.5
3457.33	22.5
3458.11	21.5
3458.89	23.5
3459.67	18
3460.44	26
3461.22	23.5
3462	26.5
3462.77	24.5
3463.55	23
3464.33	28.5
3465.1	23.5
3465.88	23.5
3466.66	22
3467.43	26.5
3468.21	22
3468.99	20
3469.76	27.5
3470.54	25.5
3471.31	22
3472.09	24.5
3472.86	23.5
3473.64	23
3474.41	23.5
3475.19	22.5
3475.96	22
3476.74	22.5
3477.51	22
3478.29	21
3479.06	27
3479.84	27.5
3480.61	29.5
3481.39	20.5
3482.16	23.5
3482.93	21.5
3483.71	25.5
3484.48	24
3485.26	23.5
3486.03	23.5
3486.8	30.5
3487.58	20.5
3488.35	27
3489.12	23
3489.9	21
3490.67	22
3491.44	26.5
3492.21	23.5
3492.99	24
3493.76	22.5
3494.53	27
3495.3	23.5
3496.08	29.5
3496.85	26.5
3497.62	21
3498.39	24.5
3499.16	22.5
3499.94	22.5
