#Acq. time (s)=	5
#Accumulations=	5
#Range (cm-¹)=	100...3500
#Windows=	4
#Autofocus=	Off
#AutoExposure=	Off
#Spike filter=	Multiple accum.
#Delay time (s)=	0
#Binning=	1
#Readout mode=	Signal
#DeNoise=	Off
#ICS correction=	Off
#Dark correction=	Off
#Inst. Process=	Off
#Instrument=	LabRAM HR Evol
#Detector=	Syncerity OE
#Objective=	x100_VIS
#Grating=	600 (500nm)
#ND Filter=	25%
#Laser=	633nm_Edge
#Hole=	100.021
#Range=	Visible
#Project=	verificaciones
#Sample=	a3
#Site=	lined
#Title=	bolusa3lined
#Remark=	
#Date=	12.01.2026 16:13
#Acquired=	12.01.2026 16:13:04
100.666	25.5
101.95	28
103.233	29.5
104.516	31.5
105.799	26
107.083	29.5
108.365	29
109.648	27.5
110.93	27.5
112.212	31
113.493	24
114.775	28
116.056	32
117.337	27.5
118.618	30.5
119.898	25.5
121.178	29
122.459	29.5
123.739	28
125.018	29.5
126.298	29.5
127.577	29
128.856	26.5
130.135	26
131.414	27
132.692	28
133.971	27.5
135.249	25
136.525	28.5
137.803	26
139.08	31
140.357	32
141.634	32.5
142.911	25
144.188	29
145.464	27
146.74	27
148.015	30.5
149.291	32
150.566	32
151.842	30
153.117	31
154.392	33
155.665	29.5
156.939	29
158.214	31
159.488	32
160.76	30.5
162.034	28
163.307	31.5
164.581	30.5
165.854	28
167.125	31
168.398	30.5
169.67	28
170.941	28.5
172.213	34
173.485	30.5
174.756	34
176.026	30
177.298	29
178.569	31.5
179.838	34
181.109	33.5
182.379	33
183.648	28
184.918	31
186.187	34
187.455	29
188.725	33
189.992	29.5
191.261	29.5
192.53	30.5
193.797	27
195.065	31.5
196.332	32.5
197.6	31.5
198.866	29.5
200.134	27
201.401	30
202.667	29
203.933	32
205.199	30
206.465	33.5
207.73	32
208.996	31
210.26	28.5
211.526	32
212.79	27
214.055	28.5
215.319	27.5
216.582	31
217.847	33.5
219.11	29
220.374	28.5
221.636	30.5
222.9	28.5
224.162	29
225.424	28.5
226.687	31.5
227.949	30.5
229.212	27
230.473	24.5
231.734	29.5
232.996	28.5
234.256	29
235.517	26.5
236.778	27.5
238.038	26
239.298	30.5
240.559	29.5
241.818	27
243.077	25.5
244.337	28
245.596	28
246.854	31.5
248.113	29
249.372	25
250.63	28.5
251.887	30.5
253.145	27.5
254.404	27.5
255.661	31.5
256.917	29
258.174	23
259.432	28
260.688	27
261.944	23.5
263.2	25
264.456	28
265.711	29
266.968	31.5
268.223	26
269.477	23.5
270.732	27.5
271.986	30.5
273.24	29
274.494	26.5
275.748	30
277.003	27
278.257	26
279.51	27
280.763	26
282.015	27
283.268	30
284.52	29.5
285.773	27.5
287.024	27
288.276	28.5
289.528	25
290.779	23
292.03	26.5
293.281	25
294.532	26.5
295.782	28
297.033	31
298.283	26.5
299.533	23.5
300.783	27
302.032	29.5
303.281	27
304.531	27.5
305.78	27.5
307.028	30.5
308.275	30
309.524	26.5
310.772	29
312.02	27
313.267	28.5
314.515	29.5
315.762	27.5
317.009	24
318.255	27.5
319.501	27
320.748	29
321.994	26.5
323.24	25
324.486	24.5
325.731	27.5
326.976	28
328.221	24
329.466	29.5
330.71	23
331.955	28
333.199	26
334.443	27
335.686	26.5
336.93	26.5
338.174	24
339.417	27
340.659	30
341.902	25.5
343.145	27.5
344.386	27.5
345.629	31.5
346.871	30
348.112	27.5
349.354	28
350.595	26
351.836	28.5
353.077	28
354.318	27
355.557	23.5
356.798	31
358.037	25
359.277	25.5
360.518	25
361.756	27
362.996	25
364.234	27.5
365.473	26
366.711	27.5
367.95	28.5
369.187	27.5
370.426	27.5
371.662	27.5
372.901	29.5
374.137	26.5
375.375	31.5
376.611	24
377.848	26.5
379.084	25
380.321	23.5
381.556	30
382.793	28
384.027	26.5
385.264	28
386.498	28
387.732	27
388.968	26
390.202	24
391.437	24
392.671	27.5
393.904	29.5
395.138	26.5
396.371	25
397.604	31
398.838	29
400.07	25.5
401.302	29
402.536	26
403.768	24
404.999	26.5
406.232	24
407.463	27
408.694	27
409.925	30
411.157	26.5
412.387	22
413.617	29
414.847	29
416.078	28
417.308	28.5
418.537	27.5
419.767	26.5
420.997	29.5
422.226	30
423.454	26.5
424.683	27
425.911	25
427.139	23.5
428.368	24
429.596	24.5
430.823	25.5
432.05	29
433.277	20
434.504	26
435.731	22
436.957	25.5
438.185	27
439.411	26.5
440.637	29.5
441.862	30.5
443.088	26
444.313	26
445.538	25.5
446.763	29
447.988	26
449.212	27
450.436	27.5
451.661	28
452.884	27.5
454.108	27.5
455.332	28
456.555	23
457.778	27.5
459.001	26
460.224	30.5
461.446	28.5
462.668	29.5
463.891	27.5
465.111	31
466.333	29
467.554	29
468.776	31.5
469.997	28
471.218	28
472.439	31
473.659	26
474.878	30.5
476.098	29
477.318	28.5
478.538	35
479.758	32.5
480.977	29
482.195	36
483.414	38
484.633	35
485.851	35
487.07	37.5
488.287	40.5
489.505	35.5
490.723	44
491.94	35
493.156	33
494.374	35
495.591	37
496.806	34
498.023	37
499.239	34
500.456	33
501.67	27.5
502.886	27.5
504.102	33
505.316	26
506.531	29
507.745	30
508.96	26
510.175	31.5
511.388	29
512.602	30
513.815	29.5
515.029	32
516.243	29
517.455	31
518.669	27.5
519.88	28.5
521.093	31.5
522.305	28
523.518	29.5
524.729	31.5
525.941	25
527.151	26
528.363	28
529.574	29
530.785	26.5
531.995	28
533.206	29.5
534.416	30.5
535.626	26.5
536.835	31
538.046	27
539.254	23
540.463	20.5
541.673	26
542.881	30
544.09	22
545.298	28
546.506	28.5
547.714	27.5
548.922	30
550.13	29
551.337	26
552.544	29
553.751	30.5
554.958	28.5
556.164	23.5
557.37	24.5
558.577	30.5
559.782	27.5
560.987	27
562.194	27
563.399	25
564.604	31
565.808	26.5
567.014	27
568.218	26.5
569.422	24.5
570.626	24
571.829	29
573.034	28.5
574.237	28
575.44	31.5
576.643	27
577.846	27.5
579.048	26
580.252	21
581.454	26.5
582.656	25
583.857	23.5
585.059	26
586.26	31
587.461	27.5
588.662	28.5
589.863	32
591.065	28
592.265	25.5
593.465	30
594.665	27
595.865	29.5
597.065	32.5
598.264	24
599.463	26.5
600.662	26
601.861	24.5
603.06	27
604.258	28.5
605.457	27
606.655	26.5
607.853	30.5
609.05	30.5
610.248	29.5
611.444	28.5
612.641	25.5
613.838	26.5
615.034	27
616.231	31
617.427	30
618.624	24.5
619.82	25
621.015	30.5
622.21	25
623.405	30
624.6	26.5
625.795	25.5
626.99	27
628.185	29.5
629.378	29.5
630.572	31.5
631.766	25
632.96	26
634.154	27
635.346	31
636.54	27.5
637.733	23
638.926	23.5
640.117	23
641.31	21
642.502	28
643.693	27
644.885	30
646.077	31
647.267	24
648.459	25
649.65	25
650.84	30.5
652.031	27.5
653.222	29.5
654.411	24
655.601	27.5
656.791	30
657.98	26
659.17	29.5
660.358	28
661.547	27
662.737	31
663.924	27
665.113	30
666.3	22.5
667.489	27
668.676	28
669.864	29.5
671.05	29.5
672.238	30
673.424	31.5
674.612	26.5
675.798	32.5
676.985	23
678.17	27.5
679.357	24.5
680.542	28.5
681.728	32.5
682.913	28
684.097	28.5
685.283	24.5
686.467	28.5
687.652	32.5
688.836	31
690.02	27
691.205	30.5
692.388	26.5
693.571	28.5
694.755	31.5
695.938	26
697.12	32
698.304	30.5
699.486	31
700.668	27.5
701.851	26
703.032	29
704.214	34.5
705.395	31.5
706.577	35
707.758	34
708.939	36.5
710.119	34
711.301	34.5
712.481	33.5
713.661	29
714.84	30
716.02	30
717.201	31
718.38	31
719.559	29
720.737	26
721.916	29.5
723.094	24
724.274	27
725.452	29
726.63	28
727.808	27.5
728.985	28
730.162	29
731.339	26
732.516	24
733.693	29
734.87	31
736.046	27
737.222	30.5
738.398	26.5
739.574	23.5
740.75	26.5
741.925	26
743.1	25.5
744.276	27
745.45	27.5
746.625	24
747.8	28
748.974	22.5
750.148	29.5
751.322	28
752.496	28.5
753.67	28.5
754.843	29
756.016	28
757.189	29.5
758.362	22.5
759.534	23
760.706	23
761.878	27
763.051	26
764.223	27
765.394	23
766.565	27.5
767.736	22.5
768.907	28.5
770.078	26.5
771.249	25.5
772.419	26.5
773.589	25
774.759	23
775.93	25
777.098	29
778.268	25.5
779.438	28.5
780.607	30.5
781.775	29
782.944	30
784.113	25.5
785.28	25.5
786.449	26.5
787.617	28
788.784	30
789.952	25
791.12	33
792.286	29.5
793.453	25
794.62	24
795.786	26.5
796.953	26.5
798.118	27.5
799.285	30
800.45	27
801.616	30
802.782	28.5
803.946	26.5
805.112	27
806.276	25
807.441	23.5
808.605	30
809.77	28
810.933	27
812.098	28
813.261	26
814.425	25
815.588	26
816.75	27.5
817.914	25.5
819.076	29
820.239	25
821.401	26.5
822.564	29.5
823.725	26
824.886	32
826.048	29
827.209	26
828.37	28.5
829.532	25
830.692	28.5
831.852	25.5
833.013	27
834.173	24
835.333	26.5
836.493	23
837.653	27.5
838.812	24
839.972	22.5
841.13	27
842.289	30.5
843.447	28.5
844.607	26
845.765	27.5
846.922	28
848.08	27
849.237	26
850.396	27
851.553	25
852.71	23.5
853.867	25.5
855.023	29.5
856.179	29
857.337	30
858.493	29
859.649	28.5
860.804	28
861.96	31.5
863.115	28.5
864.27	24
865.425	26.5
866.58	27
867.734	26
868.888	24.5
870.043	27
871.197	25
872.35	25.5
873.504	28
874.658	28
875.811	27.5
876.964	28
878.117	25.5
879.27	29.5
880.422	24.5
881.575	28
882.727	24
883.879	29.5
885.031	28
886.182	24.5
887.334	25.5
888.485	25.5
889.636	24.5
890.787	27
891.937	29.5
893.088	28
894.238	28.5
895.388	29
896.538	27
897.688	26.5
898.837	25.5
899.986	24
901.136	23.5
902.285	22.5
903.434	25.5
904.581	26.5
905.73	23
906.878	26
908.027	26
909.174	27.5
910.321	26
911.469	26.5
912.617	23
913.763	23
914.91	26.5
916.057	26.5
917.203	24
918.35	23
919.496	24.5
920.641	28
921.787	27
922.933	26
924.078	27
925.224	26.5
926.368	25
927.513	26
928.658	28.5
929.802	26
930.946	26.5
932.09	25.5
933.234	24
934.377	27
935.521	28
936.664	24
937.807	26
938.95	24.5
940.093	26
941.235	20.5
942.378	26
943.519	24.5
944.662	26.5
945.803	22.5
946.946	24.5
948.086	24
949.227	26
950.369	22.5
951.509	24
952.651	26
953.79	23.5
954.93	27
956.071	26
957.211	27
958.35	25.5
959.49	27
960.629	23
961.768	23.5
962.908	27.5
964.046	24.5
965.184	31.5
966.323	24.5
967.461	22.5
968.599	23.5
969.736	26.5
970.875	29.25
972.012	28.5
973.149	20
974.286	28
975.424	29
976.56	30
977.697	25.5
978.833	28
979.969	24
981.104	25
982.241	29.5
983.377	28
984.512	23
985.647	27.5
986.782	24.5
987.916	27.5
989.051	29
990.185	26.5
991.321	25.5
992.455	30.5
993.589	25.5
994.722	25.5
995.856	23
996.989	23.5
998.122	24.5
999.255	26
1000.39	27.5
1001.52	29
1002.65	20
1003.79	23.5
1004.92	26
1006.05	25
1007.18	25.5
1008.31	29.5
1009.44	26.5
1010.57	24.5
1011.7	26
1012.84	28
1013.97	24.5
1015.1	24.5
1016.23	22.5
1017.36	22.5
1018.49	29.5
1019.62	23
1020.75	28
1021.88	22
1023	25
1024.13	26
1025.26	25.5
1026.39	27.5
1027.52	27
1028.65	24
1029.78	25.5
1030.9	26.5
1032.03	24.5
1033.16	24.5
1034.29	27
1035.41	25
1036.54	21
1037.67	23
1038.79	25
1039.92	24.5
1041.04	24
1042.17	26.5
1043.3	27
1044.42	26
1045.55	26
1046.67	25.5
1047.8	22
1048.92	26
1050.05	27.5
1051.17	23.5
1052.3	23.5
1053.42	27
1054.54	26
1055.67	26.5
1056.79	26
1057.91	26
1059.04	24
1060.16	26.5
1061.28	25
1062.41	30
1063.53	23
1064.65	26
1065.77	26
1066.9	24.5
1068.02	26
1069.14	25
1070.26	25
1071.38	28.5
1072.5	25
1073.62	28
1074.74	28
1075.86	24.5
1076.98	24.5
1078.1	24
1079.22	26
1080.34	22
1081.46	24
1082.58	24.5
1083.7	25.5
1084.82	22.5
1085.94	24
1087.06	25.5
1088.18	23.5
1089.29	24
1090.41	22
1091.53	26.5
1092.65	27.5
1093.77	25
1094.88	25.5
1096	23
1097.12	25
1098.23	27.5
1099.35	21.5
1100.47	24
1101.58	25
1102.7	22.5
1103.82	24
1104.93	28
1106.05	24
1107.16	27
1108.28	21.5
1109.39	24
1110.51	22.5
1111.62	28
1112.74	23
1113.85	27.5
1114.96	29
1116.08	25
1117.19	24.5
1118.31	26
1119.42	20.5
1120.53	20
1121.65	22
1122.76	24
1123.87	21.5
1124.98	25
1126.1	24.5
1127.21	24.5
1128.32	23
1129.43	24.5
1130.54	22.5
1131.65	22.5
1132.76	29
1133.88	21
1134.99	22
1136.1	26
1137.21	26
1138.32	23
1139.43	22.5
1140.54	25
1141.65	28
1142.76	25
1143.87	27.5
1144.98	20
1146.08	25.5
1147.19	23.5
1148.3	23.5
1149.41	24
1150.52	19
1151.63	22
1152.73	22
1153.84	24
1154.95	24.5
1156.06	27.5
1157.17	26
1158.27	24
1159.38	24
1160.49	23.5
1161.59	22
1162.7	26
1163.8	26
1164.91	29
1166.02	21
1167.12	25
1168.23	27.5
1169.33	26.5
1170.44	26
1171.54	23.5
1172.65	24.5
1173.75	27
1174.86	26
1175.96	24
1177.06	26
1178.17	23
1179.27	26
1180.37	26.5
1181.48	28
1182.58	24.5
1183.68	28
1184.79	27
1185.89	29.5
1186.99	24
1188.09	25.5
1189.2	26.5
1190.3	26.5
1191.4	25
1192.5	26
1193.6	27
1194.7	25.4796
1195.8	27.8937
1196.9	23.0042
1198.01	24.1579
1199.11	23.0288
1200.21	23.1625
1201.31	21.2063
1202.41	24.0141
1203.5	24.0331
1204.6	27.5313
1205.7	23.0143
1206.8	20.2385
1207.9	19.5886
1209	24.7379
1210.1	27.6961
1211.2	24.4631
1212.3	23.1309
1213.39	22.0956
1214.49	26.2492
1215.59	25.4761
1216.69	25.3535
1217.78	24.0261
1218.88	21.871
1219.98	24.548
1221.08	22.8496
1222.17	26.7306
1223.27	27.1851
1224.37	23.7646
1225.46	21.235
1226.56	30.4321
1227.65	24.1481
1228.75	24.8741
1229.84	22.5093
1230.94	25.0927
1232.03	24.465
1233.13	22.3715
1234.22	23.3859
1235.32	24.3373
1236.41	23.4671
1237.51	24.2555
1238.6	23.4203
1239.69	25.7896
1240.79	23.591
1241.88	25.9437
1242.97	23.2175
1244.07	22.2245
1245.16	24.317
1246.25	21.5283
1247.35	23.8095
1248.44	25.3115
1249.53	25.9596
1250.62	25.2312
1251.71	23.5745
1252.81	24.2403
1253.9	22.3057
1254.99	23.9071
1256.08	20.1008
1257.17	23.5107
1258.26	25.883
1259.35	26.9784
1260.44	24.8734
1261.53	25.7205
1262.62	24.5435
1263.71	24.3924
1264.8	25.4958
1265.89	24.5347
1266.98	24.8228
1268.07	22.5168
1269.16	25.2179
1270.25	22.1775
1271.34	24.3799
1272.43	22.3876
1273.52	23.0857
1274.6	22.5354
1275.69	24.3831
1276.78	21.1897
1277.87	23.1478
1278.95	23.4383
1280.04	24.2114
1281.13	21.3336
1282.22	21.4464
1283.3	23.2087
1284.39	23.1472
1285.48	25.3698
1286.56	22.6846
1287.65	23.9156
1288.73	25.0892
1289.82	23.9225
1290.91	22.329
1291.99	21.5224
1293.08	23.9187
1294.16	25.6877
1295.24	22.4317
1296.33	24.2734
1297.41	24.9495
1298.5	19.2447
1299.58	20.3444
1300.67	24.7779
1301.75	24.4269
1302.83	23.983
1303.92	23.3201
1305	23.7567
1306.08	20.4334
1306.4	19
1307.49	28
1308.58	25
1309.66	24.5
1310.75	23.5
1311.84	24.5
1312.93	26.5
1314.01	24.5
1315.1	23
1316.19	19.5
1317.27	21
1318.36	24
1319.45	26
1320.53	21
1321.62	23
1322.71	23.5
1323.79	21.5
1324.88	27
1325.96	21
1327.05	24.5
1328.13	25.5
1329.22	23
1330.3	21.5
1331.39	22
1332.47	20
1333.55	25
1334.64	23
1335.72	18
1336.81	24
1337.89	23.5
1338.97	25.5
1340.06	27.5
1341.14	19
1342.22	26
1343.3	25
1344.39	22.5
1345.47	27.5
1346.55	24.5
1347.63	25
1348.71	26.5
1349.8	26
1350.88	23.5
1351.96	25
1353.04	24
1354.12	28
1355.2	19
1356.28	22
1357.36	26.5
1358.44	21
1359.52	27.5
1360.6	26
1361.68	24.5
1362.76	18.5
1363.84	28.5
1364.92	21
1366	21.5
1367.08	27.5
1368.16	21
1369.23	24
1370.31	24.5
1371.39	22
1372.47	24.5
1373.55	23
1374.62	27.5
1375.7	22.5
1376.78	24.5
1377.86	28
1378.93	24
1380.01	24.5
1381.09	22
1382.16	26
1383.24	23
1384.32	21
1385.39	21.5
1386.47	22
1387.54	25
1388.62	25.5
1389.69	21.5
1390.77	21
1391.84	22
1392.92	23
1393.99	25
1395.07	26.5
1396.14	22
1397.21	27.5
1398.29	22.5
1399.36	27.5
1400.44	24.5
1401.51	25
1402.58	26
1403.66	28
1404.73	28
1405.8	25.5
1406.87	26
1407.95	25
1409.02	31
1410.09	29
1411.16	25
1412.23	28
1413.3	27.5
1414.38	29
1415.45	29.5
1416.52	24
1417.59	26
1418.66	26
1419.73	28.5
1420.8	26
1421.87	23
1422.94	25.5
1424.01	26.5
1425.08	26.5
1426.15	25
1427.22	23.5
1428.29	23.5
1429.36	29
1430.43	26.5
1431.49	28
1432.56	28.5
1433.63	28.5
1434.7	26
1435.77	23
1436.83	25
1437.9	24.5
1438.97	21.5
1440.04	26.5
1441.1	26
1442.17	26.5
1443.24	23
1444.3	25
1445.37	25
1446.44	24.5
1447.5	23.5
1448.57	24
1449.63	24
1450.7	24
1451.77	23
1452.83	27.5
1453.9	23
1454.96	24
1456.03	22.5
1457.09	23.5
1458.15	26.5
1459.22	25
1460.28	20
1461.35	20.5
1462.41	23.5
1463.47	24
1464.54	25
1465.6	22
1466.66	23
1467.73	26
1468.79	25.5
1469.85	23.5
1470.91	20.5
1471.98	28.5
1473.04	27.5
1474.1	24
1475.16	24.5
1476.22	24.5
1477.28	24
1478.35	25
1479.41	23
1480.47	31
1481.53	24.5
1482.59	26
1483.65	28
1484.71	29
1485.77	25
1486.83	25.5
1487.89	24
1488.95	20
1490.01	25.5
1491.07	30
1492.13	25.5
1493.18	24
1494.24	20.5
1495.3	27
1496.36	25
1497.42	23
1498.48	22.5
1499.53	29
1500.59	23.5
1501.65	26
1502.71	21
1503.76	28
1504.82	21.5
1505.88	24.5
1506.93	27
1507.99	25.5
1509.05	25
1510.1	23.5
1511.16	25.5
1512.21	30
1513.27	26.5
1514.33	25.5
1515.38	27
1516.44	25
1517.49	24
1518.55	26
1519.6	24
1520.66	25
1521.71	25.5
1522.76	27
1523.82	25.5
1524.87	29
1525.93	21.5
1526.98	27
1528.03	27
1529.08	24
1530.14	23
1531.19	28
1532.24	27.5
1533.3	26
1534.35	24.5
1535.4	23.5
1536.45	29
1537.5	24.5
1538.56	26
1539.61	23
1540.66	27
1541.71	25
1542.76	26
1543.81	27
1544.86	25
1545.91	22
1546.96	26
1548.01	26
1549.06	28
1550.11	24
1551.16	25.5
1552.21	28
1553.26	23
1554.31	25
1555.36	26.5
1556.41	24
1557.46	19.5
1558.51	27
1559.56	22
1560.6	24.5
1561.65	26.5
1562.7	25
1563.75	26
1564.79	27
1565.84	25.5
1566.89	23.5
1567.94	26
1568.98	26
1570.03	24.5
1571.08	20
1572.12	25
1573.17	20
1574.22	26.5
1575.26	21
1576.31	28.5
1577.35	26
1578.4	21.5
1579.44	28
1580.49	27
1581.53	25
1582.58	26.5
1583.62	23.5
1584.67	27
1585.71	25
1586.76	24
1587.8	22
1588.84	25.5
1589.89	25.5
1590.93	25.5
1591.97	26.5
1593.02	26.5
1594.06	23
1595.1	24.5
1596.14	22
1597.19	23
1598.23	25
1599.27	24.5
1600.31	26.5
1601.36	26.5
1602.4	26
1603.44	22
1604.48	26
1605.52	26
1606.56	25
1607.6	26
1608.64	23.5
1609.68	21
1610.72	22.5
1611.76	25.5
1612.81	26
1613.84	25
1614.88	25.5
1615.92	24
1616.96	26.5
1618	24
1619.04	21.5
1620.08	24
1621.12	23
1622.16	29
1623.2	25.5
1624.23	28
1625.27	19
1626.31	21.5
1627.35	23.5
1628.39	26
1629.42	21.5
1630.46	23
1631.5	25.5
1632.53	29
1633.57	25
1634.61	25
1635.64	23
1636.68	25
1637.72	23
1638.75	26
1639.79	25.5
1640.82	22.5
1641.86	26.5
1642.89	23.5
1643.93	25.5
1644.96	24
1646	25.5
1647.03	28
1648.07	25.5
1649.1	25
1650.14	24.5
1651.17	26
1652.21	25
1653.24	21.5
1654.27	26.5
1655.31	26
1656.34	22
1657.37	23.5
1658.41	26
1659.44	21.5
1660.47	27.5
1661.5	23.5
1662.53	25
1663.57	26
1664.6	25
1665.63	25.5
1666.66	25
1667.69	27
1668.72	24
1669.76	24.5
1670.79	21.5
1671.82	22.5
1672.85	22.5
1673.88	25.5
1674.91	20.5
1675.94	25
1676.97	27.5
1678	27
1679.03	27
1680.06	23
1681.09	29
1682.12	25
1683.15	27.5
1684.17	26
1685.2	26.5
1686.23	24.5
1687.26	25
1688.29	23.5
1689.32	27.5
1690.34	21.5
1691.37	27
1692.4	22.5
1693.43	26.5
1694.45	24
1695.48	27
1696.51	25
1697.54	26
1698.56	24
1699.59	22.5
1700.61	23
1701.64	26
1702.67	23.5
1703.69	20.5
1704.72	24.5
1705.74	25
1706.77	25.5
1707.79	21.5
1708.82	23.5
1709.84	27
1710.87	30
1711.89	24.5
1712.92	24
1713.94	21.5
1714.97	23
1715.99	25
1717.01	25
1718.04	26.5
1719.06	25
1720.08	21
1721.11	22
1722.13	29
1723.15	25
1724.18	25.5
1725.2	27
1726.22	26
1727.24	28
1728.26	26
1729.29	22.5
1730.31	22
1731.33	24.5
1732.35	25
1733.37	27
1734.39	24
1735.41	24
1736.43	24.5
1737.45	22.5
1738.47	27
1739.5	27
1740.52	23
1741.53	27
1742.55	25.5
1743.57	23
1744.59	22.5
1745.61	28
1746.63	23.5
1747.65	21
1748.67	25
1749.69	24
1750.71	24.5
1751.72	28.5
1752.74	26
1753.76	20.5
1754.78	22
1755.8	24.5
1756.81	27
1757.83	26.5
1758.85	25
1759.87	26
1760.88	23
1761.9	22.5
1762.92	22.5
1763.93	25.5
1764.95	27.5
1765.96	25.5
1766.98	25
1768	25
1769.01	26
1770.03	25
1771.04	23
1772.06	25
1773.07	21.5
1774.09	25
1775.1	24
1776.12	26
1777.13	23.5
1778.15	28.5
1779.16	24
1780.17	24.5
1781.19	26.5
1782.2	29
1783.21	27
1784.23	24
1785.24	25.5
1786.25	29
1787.27	27
1788.28	24
1789.29	27
1790.3	24.5
1791.32	25
1792.33	24
1793.34	25.5
1794.35	25.5
1795.36	24
1796.38	26.5
1797.39	23.5
1798.4	28.5
1799.41	25.5
1800.42	26
1801.43	25.5
1802.44	27.5
1803.45	25
1804.46	24
1805.47	23.5
1806.48	25
1807.49	24.5
1808.5	22
1809.51	24.5
1810.52	23.5
1811.53	27
1812.53	24
1813.54	26
1814.55	22
1815.56	28.5
1816.57	25
1817.58	24.5
1818.59	24.5
1819.59	26
1820.6	25
1821.61	21
1822.62	24.5
1823.62	24
1824.63	27.5
1825.64	29.5
1826.64	23
1827.65	27.5
1828.66	24.5
1829.66	25
1830.67	26.5
1831.67	26
1832.68	26.5
1833.69	27.5
1834.69	24.5
1835.7	28
1836.7	28.5
1837.71	24
1838.71	27.5
1839.72	23
1840.72	25
1841.72	25
1842.73	25.5
1843.73	20
1844.74	26.5
1845.74	29
1846.74	20.5
1847.75	23
1848.75	24.5
1849.75	25.5
1850.76	25
1851.76	23.5
1852.76	27
1853.76	23
1854.77	25.5
1855.77	25
1856.77	22.5
1857.77	27.5
1858.78	26.5
1859.78	26.5
1860.78	22.5
1861.78	23
1862.78	26
1863.78	22
1864.78	24
1865.78	25
1866.78	24
1867.78	23.5
1868.78	25
1869.78	24
1870.78	26.5
1871.78	27.5
1872.78	21
1873.78	25
1874.78	27.5
1875.78	22
1876.78	24.5
1877.78	26
1878.78	25.5
1879.78	28
1880.77	23
1881.77	25.5
1882.77	22
1883.77	22
1884.77	23
1885.76	30.5
1886.76	26
1887.76	24
1888.75	26
1889.75	25
1890.75	20
1891.74	20
1892.74	22
1893.74	27.5
1894.73	22.5
1895.73	23
1896.73	22.5
1897.72	25.5
1898.72	23
1899.71	23.5
1900.71	22
1901.7	23
1902.7	26.5
1903.69	18
1904.69	21
1905.68	24
1906.68	21
1907.67	25
1908.66	23.5
1909.66	24.5
1910.65	23.5
1911.64	26.5
1912.64	19.5
1913.63	26
1914.62	22
1915.62	24.5
1916.61	26
1917.6	27.5
1918.6	24.5
1919.59	23.5
1920.58	25
1921.57	28.5
1922.56	23.5
1923.55	28.5
1924.55	23
1925.54	25
1926.53	24.5
1927.52	24.5
1928.51	26
1929.5	24.5
1930.49	22
1931.48	26.5
1932.47	23.5
1933.46	23
1934.45	26.5
1935.44	21.5
1936.43	26
1937.42	24.5
1938.41	20.5
1939.4	21
1940.39	23
1941.38	19
1942.37	21.5
1943.36	20.5
1944.35	23
1945.33	24
1946.32	23.5
1947.31	26
1948.3	25.5
1949.29	25
1950.27	25
1951.26	24.5
1952.25	22
1953.24	23
1954.22	20
1955.21	22
1956.2	27
1957.18	22.5
1958.17	25
1959.16	25
1960.14	22
1961.13	23
1962.11	29
1963.1	21.5
1964.08	22
1965.07	19.5
1966.05	27
1967.04	23
1968.02	21.5
1969.01	24.5
1969.99	20
1970.98	24.5
1971.96	22
1972.95	24.5
1973.93	23.5
1974.91	26
1975.9	23
1976.88	24.5
1977.86	21.5
1978.85	21
1979.83	24
1980.81	26
1981.8	25
1982.78	24
1983.76	24.5
1984.74	25
1985.73	24
1986.71	27
1987.69	26
1988.67	25
1989.65	21.5
1990.63	24
1991.62	20.5
1992.6	21
1993.58	22.5
1994.56	24.5
1995.54	24
1996.52	24
1997.5	22.5
1998.48	20.5
1999.46	22
2000.44	23
2001.42	22.5
2002.4	23.5
2003.38	21.5
2004.36	21.5
2005.34	26
2006.32	22
2007.29	26
2008.27	24
2009.25	24.5
2010.23	25
2011.21	21.5
2012.19	20.5
2013.17	28
2014.14	23.5
2015.12	23.5
2016.1	23
2017.07	25.5
2018.05	24.5
2019.03	22
2020.01	22.5
2020.98	21.5
2021.96	26
2022.94	23
2023.91	24.5
2024.89	23
2025.86	25
2026.84	20
2027.82	19
2028.79	22
2029.77	22.5
2030.74	24.5
2031.72	24
2032.69	22
2033.67	23
2034.64	23
2035.62	24.5
2036.59	22.5
2037.56	22.5
2038.54	25.5
2039.51	23
2040.49	23
2041.46	25
2042.43	23.5
2043.41	22
2044.38	23
2045.35	25.5
2046.32	26
2047.3	21
2048.27	22.5
2049.24	22.5
2050.21	25
2051.19	21
2052.16	24
2053.13	22.5
2054.1	26
2055.07	24.5
2056.05	23.5
2057.02	24.5
2057.99	20.5
2058.96	22
2059.93	25
2060.9	24
2061.87	22.5
2062.84	21
2063.81	19
2064.78	20.5
2065.75	24.5
2066.72	23.5
2067.69	24
2068.66	24.5
2069.63	24
2070.6	24.5
2071.57	25
2072.54	24
2073.5	24
2074.47	23
2075.44	23
2076.41	20.5
2077.38	22.5
2078.35	23
2079.31	24
2080.28	25
2081.25	24.5
2082.22	24.5
2083.18	20
2084.15	24
2085.12	22
2086.08	25
2087.05	22.5
2088.02	21.5
2088.98	24
2089.95	21
2090.92	23.5
2091.88	22.5
2092.85	23
2093.81	24
2094.78	21.5
2095.74	23
2096.71	23
2097.67	25.5
2098.64	26
2099.6	22.5
2100.57	24
2101.53	23
2102.5	21
2103.46	24
2104.42	22.5
2105.39	22
2106.35	22
2107.32	24.5
2108.28	26
2109.24	23.5
2110.21	25
2111.17	24.5
2112.13	19
2113.09	22.5
2114.06	23
2115.02	24
2115.98	24
2116.94	19
2117.91	20
2118.87	24
2119.83	22
2120.79	24
2121.75	22.5
2122.71	23.5
2123.67	22.5
2124.63	22.5
2125.6	21
2126.56	22
2127.52	22
2128.48	23.5
2129.44	25.5
2130.4	21.5
2131.36	22.5
2132.32	26
2133.28	25.5
2134.23	21
2135.19	27
2136.15	21
2137.11	24
2138.07	17
2139.03	22.5
2139.99	24
2140.95	19.5
2141.9	22
2142.86	21.0085
2143.82	20.9722
2144.78	23.8739
2145.74	25.3561
2146.69	24.852
2147.65	21.4398
2148.61	22.913
2149.57	20.8215
2150.52	21.4749
2151.48	26.7724
2152.44	22.1253
2153.39	23.8119
2154.35	22.3174
2155.31	20.0515
2156.26	22.4599
2157.22	24.6177
2158.17	23.0349
2159.13	21.3069
2160.08	24.3598
2161.04	23.8988
2161.99	24.8769
2162.95	21.9279
2163.91	23.2002
2164.86	21.2282
2165.81	25.8297
2166.77	23.4572
2167.72	19.6197
2168.68	21.2291
2169.63	25.4083
2170.58	24.3892
2171.54	21.5724
2172.49	22.2331
2173.45	24.6658
2174.4	24.2301
2175.35	24.9459
2176.31	19.258
2177.26	21.3131
2178.21	24.5656
2179.16	21.4842
2180.12	23.7883
2181.07	21.7732
2182.02	21.1116
2182.97	24.8597
2183.92	22.4073
2184.88	21.8774
2185.83	23.6969
2186.78	24.8709
2187.73	23.4125
2188.68	22.8883
2189.63	23.1072
2190.58	24.4908
2191.53	22.282
2192.49	20.7599
2193.43	18.768
2194.39	21.6725
2195.34	20.6179
2196.28	23.6301
2197.24	22.4004
2198.19	19.4361
2199.13	22.6749
2200.08	23.7475
2201.03	21.5868
2201.98	22.4524
2202.93	20.9415
2203.88	21.182
2204.83	22.3507
2205.78	23.8103
2206.73	22.7147
2207.67	20.7276
2208.62	23.4042
2209.57	22.3933
2210.52	24.8429
2211.47	22.657
2212.41	21.1342
2213.36	21.998
2214.31	20.2829
2215.26	22.7423
2216.2	22.4951
2217.15	22.2175
2218.1	22.7396
2219.04	21.9264
2219.99	24.0294
2220.93	24.4005
2221.88	22.4162
2222.83	22.8961
2223.77	22.8935
2224.72	21.827
2225.66	19.9353
2226.61	20.3496
2227.55	24.7299
2228.5	24.0955
2229.44	23.8336
2230.39	22.6893
2231.33	22.1772
2232.28	20.2937
2233.22	22.7225
2234.17	21.3993
2235.11	22.4565
2236.06	22.8689
2237	21.5052
2237.94	23.6351
2238.89	24.139
2239.83	23.983
2240.06	24
2241.01	27
2241.96	22.5
2242.9	23.5
2243.85	21.5
2244.8	20.5
2245.75	21
2246.69	24
2247.64	19
2248.59	24
2249.53	27
2250.48	25
2251.43	23
2252.37	21
2253.32	23.5
2254.27	23
2255.21	23.5
2256.16	21
2257.1	23.5
2258.05	19.5
2259	23
2259.94	22
2260.89	19.5
2261.83	23.5
2262.78	23.5
2263.72	20
2264.67	24.5
2265.61	21.5
2266.56	25
2267.5	21.5
2268.44	25
2269.39	22.5
2270.33	25
2271.27	24
2272.22	22.5
2273.16	22
2274.1	26
2275.05	20
2275.99	25.5
2276.93	20.5
2277.88	23
2278.82	23.5
2279.76	17.5
2280.7	25.5
2281.65	23.5
2282.59	22
2283.53	21
2284.47	22
2285.41	24
2286.35	20.5
2287.29	23
2288.24	26.5
2289.18	21.5
2290.12	23.5
2291.06	22.5
2292	23
2292.94	26.5
2293.88	23
2294.82	25.5
2295.76	25.5
2296.7	24
2297.64	22.5
2298.58	21
2299.52	23
2300.46	20
2301.4	24
2302.34	23
2303.28	24
2304.21	25
2305.15	23
2306.09	24.5
2307.03	28.5
2307.97	20.5
2308.91	22.5
2309.84	23
2310.78	24
2311.72	24
2312.66	23
2313.59	21.5
2314.53	24.5
2315.47	23.5
2316.4	23
2317.34	23.5
2318.28	24
2319.22	25
2320.15	23.5
2321.09	23
2322.02	22
2322.96	20.5
2323.89	22
2324.83	23
2325.77	24.5
2326.7	24.5
2327.64	25.5
2328.57	20.5
2329.51	23
2330.44	22.5
2331.38	24.5
2332.31	26
2333.25	22
2334.18	26
2335.11	23
2336.05	23
2336.98	24.5
2337.92	25
2338.85	23
2339.78	20
2340.72	24
2341.65	18.5
2342.58	19
2343.52	24.5
2344.45	19
2345.38	24.5
2346.31	24
2347.25	25.5
2348.18	24
2349.11	24.5
2350.04	25
2350.97	27
2351.9	21
2352.84	23.5
2353.77	24
2354.7	26
2355.63	23
2356.56	20.5
2357.49	23
2358.42	25
2359.35	21.5
2360.28	25
2361.21	26
2362.14	25.5
2363.07	23.5
2364	19
2364.93	21
2365.86	21.5
2366.79	24
2367.72	21
2368.65	24
2369.58	28.5
2370.51	22
2371.44	22
2372.36	24
2373.29	23
2374.22	24.5
2375.15	23.5
2376.08	21
2377.01	21
2377.93	25
2378.86	22.5
2379.79	25.5
2380.72	23
2381.64	23
2382.57	21.5
2383.5	23.5
2384.42	27.5
2385.35	26
2386.28	24
2387.2	24.5
2388.13	25
2389.06	28.5
2389.98	21.5
2390.91	25
2391.83	23
2392.76	25.5
2393.69	22.5
2394.61	25.5
2395.54	24.5
2396.46	19.5
2397.39	25.5
2398.31	24.5
2399.23	24
2400.16	26.5
2401.08	21.5
2402.01	23.5
2402.93	24
2403.86	24.5
2404.78	26.5
2405.7	23.5
2406.63	22
2407.55	24.5
2408.47	22
2409.4	22.5
2410.32	23
2411.24	23.5
2412.17	24.5
2413.09	20
2414.01	25
2414.93	23
2415.85	21.5
2416.78	20
2417.7	22.5
2418.62	22.5
2419.54	25
2420.46	27
2421.38	22
2422.31	23.5
2423.23	27
2424.15	26
2425.07	23
2425.99	22.5
2426.91	23.5
2427.83	27
2428.75	22
2429.67	22.5
2430.59	21.5
2431.51	20
2432.43	25
2433.35	22
2434.27	23.5
2435.19	25
2436.11	25.5
2437.03	29
2437.94	22
2438.86	24.5
2439.78	20.5
2440.7	22.5
2441.62	23.5
2442.54	23.5
2443.46	23
2444.37	24.5
2445.29	25
2446.21	23
2447.13	23
2448.04	25.5
2448.96	22
2449.88	25
2450.8	28
2451.71	21
2452.63	25
2453.55	25
2454.46	21.5
2455.38	21
2456.29	24
2457.21	25
2458.13	24.5
2459.04	27
2459.96	24
2460.87	22.5
2461.79	25.5
2462.7	21
2463.62	24
2464.53	23.5
2465.45	22.5
2466.36	22.5
2467.28	23.5
2468.19	27.5
2469.11	24
2470.02	25
2470.93	22
2471.85	23
2472.76	26.5
2473.67	23
2474.59	26.5
2475.5	26
2476.42	23
2477.33	24
2478.24	24.5
2479.15	27.5
2480.07	26
2480.98	23
2481.89	23
2482.8	23.5
2483.72	27.5
2484.63	22
2485.54	25.5
2486.45	26
2487.36	21
2488.27	24
2489.19	26
2490.1	21
2491.01	21.5
2491.92	23
2492.83	25
2493.74	22
2494.65	22
2495.56	26.5
2496.47	24
2497.38	22
2498.29	24
2499.2	25.5
2500.11	22.5
2501.02	25.5
2501.93	20.5
2502.84	26
2503.75	22.5
2504.66	22.5
2505.57	20
2506.47	22.5
2507.38	22
2508.29	24.5
2509.2	23
2510.11	26.5
2511.02	25.5
2511.92	23
2512.83	20
2513.74	24.5
2514.65	23
2515.55	25.5
2516.46	27
2517.37	23
2518.28	21.5
2519.18	30
2520.09	21
2521	25
2521.9	24.5
2522.81	25.5
2523.72	26.5
2524.62	21
2525.53	24.5
2526.43	24
2527.34	21.5
2528.24	23.5
2529.15	23
2530.06	24.5
2530.96	24
2531.87	25
2532.77	25
2533.68	25
2534.58	24
2535.48	27.5
2536.39	23.5
2537.29	26.5
2538.2	25
2539.1	22
2540	24.5
2540.91	27
2541.81	24
2542.72	26
2543.62	27
2544.52	25.5
2545.42	23
2546.33	20
2547.23	23
2548.13	24
2549.04	24
2549.94	24
2550.84	26
2551.74	26.5
2552.64	23.5
2553.55	22.5
2554.45	26.5
2555.35	21.5
2556.25	26
2557.15	23
2558.05	23
2558.95	21.5
2559.85	22
2560.76	26.5
2561.66	25
2562.56	22.5
2563.46	25
2564.36	25.5
2565.26	26.5
2566.16	21.5
2567.06	28
2567.96	22.5
2568.86	25.5
2569.76	28
2570.66	24
2571.55	27.5
2572.45	22.5
2573.35	24
2574.25	22
2575.15	24.5
2576.05	24
2576.95	24.5
2577.84	24.5
2578.74	26
2579.64	25
2580.54	22.5
2581.44	18
2582.33	25
2583.23	26.5
2584.13	22
2585.03	24.5
2585.92	25
2586.82	24.5
2587.72	24
2588.61	21.5
2589.51	24
2590.41	24.5
2591.3	28.5
2592.2	24
2593.09	24.5
2593.99	22.5
2594.89	23
2595.78	22
2596.68	24.5
2597.57	22.5
2598.47	23.5
2599.36	23.5
2600.26	25
2601.15	24.5
2602.05	23
2602.94	22
2603.84	25
2604.73	25.5
2605.63	24
2606.52	31.5
2607.41	23.5
2608.31	22
2609.2	24
2610.09	23
2610.99	24.5
2611.88	26
2612.77	22.5
2613.67	25.5
2614.56	24
2615.45	24
2616.35	25.5
2617.24	26
2618.13	28.5
2619.02	24.5
2619.91	23
2620.81	27
2621.7	20
2622.59	26
2623.48	25.5
2624.37	28
2625.26	24.5
2626.15	26
2627.05	28.5
2627.94	24
2628.83	25
2629.72	25
2630.61	18
2631.5	25
2632.39	24
2633.28	27.5
2634.17	24
2635.06	24
2635.95	27
2636.84	27
2637.73	23
2638.62	21
2639.51	21.5
2640.4	24
2641.28	26.5
2642.17	24.5
2643.06	25
2643.95	26
2644.84	24.5
2645.73	26
2646.62	23.5
2647.5	20.5
2648.39	27.5
2649.28	21
2650.17	23
2651.05	25.5
2651.94	21
2652.83	27
2653.72	27
2654.6	20
2655.49	22.5
2656.38	24
2657.26	25.5
2658.15	25.5
2659.04	24
2659.92	23
2660.81	23.5
2661.69	26.5
2662.58	25
2663.47	24.5
2664.35	24.5
2665.24	23.5
2666.12	23.5
2667.01	22.5
2667.89	23.5
2668.78	27
2669.66	24
2670.55	24
2671.43	20
2672.32	22.5
2673.2	23
2674.08	25
2674.97	24.5
2675.85	25
2676.74	23.5
2677.62	24
2678.5	24.5
2679.39	25
2680.27	27.5
2681.15	22.5
2682.04	23
2682.92	24.5
2683.8	29
2684.68	25.5
2685.57	22.5
2686.45	26
2687.33	23
2688.21	22.5
2689.09	22.5
2689.98	24.5
2690.86	22
2691.74	20
2692.62	23
2693.5	24.5
2694.38	25
2695.27	26.5
2696.15	21
2697.03	25.5
2697.91	22
2698.79	23
2699.67	24.5
2700.55	24
2701.43	25.5
2702.31	23
2703.19	22
2704.07	24
2704.95	24
2705.83	24.5
2706.71	24
2707.59	28
2708.47	24
2709.34	20
2710.22	26
2711.1	24
2711.98	26
2712.86	20
2713.74	20.5
2714.62	24.5
2715.49	25
2716.37	24.5
2717.25	28
2718.13	21
2719.01	28
2719.88	25.5
2720.76	21.5
2721.64	28
2722.51	25.5
2723.39	21
2724.27	24.5
2725.14	22
2726.02	24.5
2726.9	22.5
2727.77	19.5
2728.65	24.5
2729.53	22
2730.4	25
2731.28	26
2732.15	25
2733.03	27
2733.91	23.5
2734.78	22.5
2735.66	24.5
2736.53	24.5
2737.41	25
2738.28	21.5
2739.16	27
2740.03	23.5
2740.9	22.5
2741.78	25
2742.65	22.5
2743.53	24.5
2744.4	20.5
2745.27	19.5
2746.15	24
2747.02	25.5
2747.89	25.5
2748.77	19
2749.64	23
2750.51	25
2751.39	19.5
2752.26	21.5
2753.13	23.5
2754.01	23
2754.88	26
2755.75	22.5
2756.62	26
2757.49	23.5
2758.37	25.5
2759.24	22
2760.11	24
2760.98	21.5
2761.85	23.5
2762.72	25
2763.59	20
2764.46	22
2765.34	21.5
2766.21	24
2767.08	21
2767.95	22
2768.82	22
2769.69	22
2770.56	24
2771.43	24
2772.3	24.5
2773.17	29
2774.04	23.5
2774.91	23.5
2775.78	23.5
2776.65	28
2777.51	24.5
2778.38	26
2779.25	24
2780.12	25
2780.99	25.5
2781.86	27
2782.73	25
2783.59	25
2784.46	24
2785.33	26
2786.2	23
2787.07	26
2787.93	25
2788.8	24.5
2789.67	22
2790.54	24
2791.4	25
2792.27	25.5
2793.14	24.5
2794	25.5
2794.87	23
2795.74	25.5
2796.6	23.5
2797.47	23
2798.34	23
2799.2	26
2800.07	24.5
2800.93	24.5
2801.8	24
2802.66	25
2803.53	27
2804.39	26
2805.26	26.5
2806.12	23
2806.99	27
2807.85	23
2808.72	23
2809.58	25
2810.45	28.5
2811.31	27
2812.18	24
2813.04	23.5
2813.9	27
2814.77	24.5
2815.63	24.5
2816.49	27
2817.36	25
2818.22	20.5
2819.08	25
2819.95	23
2820.81	23
2821.67	23.5
2822.53	23
2823.4	22
2824.26	24.5
2825.12	25
2825.98	26.5
2826.84	25
2827.71	23
2828.57	25.5
2829.43	25
2830.29	27
2831.15	25
2832.01	25
2832.88	23
2833.74	25
2834.6	24
2835.46	25
2836.32	21
2837.18	26.5
2838.04	23
2838.9	21
2839.76	24
2840.62	26.5
2841.48	24.5
2842.34	22
2843.2	25
2844.06	26
2844.92	28
2845.78	25
2846.63	22.5
2847.49	22.5
2848.35	24.5
2849.21	28
2850.07	25
2850.93	24
2851.79	24
2852.64	23.5
2853.5	24
2854.36	22.5
2855.22	24
2856.08	25.5
2856.93	23
2857.79	21.5
2858.65	23.5
2859.51	24
2860.36	25.5
2861.22	27
2862.08	24
2862.93	24.5
2863.79	25
2864.65	23.5
2865.5	23.5
2866.36	25
2867.22	23.5
2868.07	25
2868.93	26
2869.78	24
2870.64	30.5
2871.49	25.5
2872.35	23.5
2873.21	24
2874.06	26.5
2874.91	22
2875.77	26.5
2876.62	26
2877.48	28.5
2878.33	26
2879.19	27
2880.04	25.5
2880.9	25.5
2881.75	25
2882.6	29
2883.46	23
2884.31	29.5
2885.17	26.5
2886.02	32
2886.87	25.5
2887.73	28
2888.58	27.5
2889.43	27
2890.28	24
2891.14	26
2891.99	26
2892.84	33.5
2893.69	32.5
2894.55	32
2895.4	30
2896.25	31
2897.1	35
2897.95	34
2898.8	31
2899.66	34
2900.51	34
2901.36	41.5
2902.21	44
2903.06	43
2903.91	38
2904.76	43.5
2905.61	42.5
2906.46	38
2907.31	37
2908.16	42.5
2909.01	33.5
2909.86	35
2910.71	37.5
2911.56	38.5
2912.41	31.5
2913.26	36
2914.11	34
2914.96	33
2915.81	28
2916.66	26
2917.51	35
2918.36	26
2919.2	29
2920.05	27.5
2920.9	30
2921.75	28
2922.6	27.5
2923.45	27
2924.29	24.5
2925.14	26
2925.99	28
2926.84	23
2927.68	26
2928.53	25.5
2929.38	25
2930.23	25
2931.07	25
2931.92	26.5
2932.77	28
2933.61	23.5
2934.46	27.5
2935.3	25
2936.15	20.5
2937	25
2937.84	28
2938.69	24
2939.53	28.5
2940.38	24
2941.23	23
2942.07	27.5
2942.92	29
2943.76	23
2944.61	25
2945.45	25
2946.3	26
2947.14	23
2947.98	23.5
2948.83	27
2949.67	24
2950.52	25
2951.36	26
2952.2	25.5
2953.05	22.5
2953.89	25.5
2954.74	26
2955.58	29
2956.42	29
2957.27	29
2958.11	25.5
2958.95	32.5
2959.79	28
2960.64	27.5
2961.48	32.5
2962.32	29.5
2963.16	33
2964.01	28.5
2964.85	30
2965.69	29
2966.53	31.5
2967.37	30
2968.21	28
2969.06	29
2969.9	33
2970.74	31
2971.58	27.9757
2972.42	24.9843
2973.26	28.025
2974.1	29.5772
2974.94	26.7008
2975.78	23.7085
2976.62	25.7817
2977.46	25.4712
2978.3	27.0801
2979.14	26.1658
2979.98	24.209
2980.82	23.9404
2981.66	23.1569
2982.5	26.9947
2983.34	23.4893
2984.18	27.0431
2985.02	25.8143
2985.86	25.901
2986.7	24.5688
2987.54	24.4794
2988.38	25.5648
2989.21	21.7837
2990.05	24.1555
2990.89	23.245
2991.73	20.5693
2992.57	23.5564
2993.41	26.4563
2994.24	22.6817
2995.08	25.7864
2995.92	23.2112
2996.76	22.3148
2997.59	23.7691
2998.43	25.2733
2999.27	21.2606
3000.1	19.3878
3000.94	23.3133
3001.78	22.4531
3002.61	24.6262
3003.45	23.8609
3004.29	22.6409
3005.12	21.9437
3005.96	22.468
3006.8	22.9908
3007.63	21.1281
3008.47	22.4649
3009.3	23.0908
3010.14	23.6889
3010.97	21.938
3011.81	26.1523
3012.64	24.2417
3013.48	23.1421
3014.31	23.2785
3015.15	20.1652
3015.98	24.5003
3016.82	22.3985
3017.65	21.7488
3018.49	20.6233
3019.32	21.3359
3020.16	23.3959
3020.99	24.0615
3021.82	23.6777
3022.66	23.3956
3023.49	23.2623
3024.32	22.3392
3025.16	23.0303
3025.99	22.3512
3026.82	20.7834
3027.66	23.1356
3028.49	22.7918
3029.32	22.4747
3030.16	20.7093
3030.99	21.0541
3031.82	20.7343
3032.65	19.363
3033.49	22.1305
3034.32	23.1454
3035.15	23.5939
3035.98	21.7377
3036.81	23.0378
3037.64	23.0092
3038.48	23.017
3039.31	23.7624
3040.14	24.3204
3040.97	22.8163
3041.8	23.5
3042.63	22.3456
3043.46	22.2945
3044.29	22.4288
3045.12	22.4461
3045.95	21.4166
3046.78	21.4593
3047.61	23.3906
3048.44	21.419
3049.27	20.8807
3050.1	25.0093
3050.93	24.356
3051.76	23.9276
3052.59	24.1962
3053.42	23.147
3054.25	23.6895
3055.08	23.0198
3055.91	21.7536
3056.74	21.8152
3057.26	21.5
3058.09	23.5
3058.92	23.5
3059.76	23
3060.59	22
3061.42	23
3062.26	21
3063.09	24
3063.92	21.5
3064.75	26.5
3065.59	26
3066.42	21
3067.25	18.5
3068.08	24
3068.91	24
3069.74	20
3070.58	24
3071.41	20
3072.24	18
3073.07	26
3073.9	23
3074.73	23
3075.56	21
3076.39	23.5
3077.22	19.5
3078.05	23
3078.88	25
3079.71	21
3080.55	21
3081.38	24.5
3082.2	24.5
3083.03	21.5
3083.86	24.5
3084.69	25
3085.52	21
3086.35	21
3087.18	24
3088.01	23
3088.84	23
3089.67	23
3090.5	27
3091.33	21
3092.15	23.5
3092.98	22
3093.81	17
3094.64	25.5
3095.47	21.5
3096.29	24.5
3097.12	20
3097.95	23
3098.78	25
3099.6	20
3100.43	23.5
3101.26	22.5
3102.09	23
3102.91	24
3103.74	21
3104.57	20
3105.39	26
3106.22	22
3107.05	22
3107.87	24
3108.7	20
3109.52	20.5
3110.35	22
3111.18	25
3112	22
3112.83	21.5
3113.65	23
3114.48	20
3115.3	19
3116.13	25.5
3116.95	22
3117.78	24
3118.6	23
3119.43	25
3120.25	21
3121.08	22.5
3121.9	22
3122.73	25
3123.55	24
3124.37	25
3125.2	28
3126.02	24.5
3126.84	23.5
3127.67	24.5
3128.49	21.5
3129.31	25
3130.14	21.5
3130.96	26.5
3131.78	19.5
3132.61	22
3133.43	22
3134.25	24
3135.07	22
3135.9	24
3136.72	21.5
3137.54	23
3138.36	24.5
3139.18	22.5
3140.01	24.5
3140.83	24.5
3141.65	20.5
3142.47	20.5
3143.29	20.5
3144.11	23
3144.93	20
3145.75	22
3146.58	24.5
3147.4	24.5
3148.22	22
3149.04	20.5
3149.86	25.5
3150.68	22.5
3151.5	26.5
3152.32	18
3153.14	22.5
3153.96	24.5
3154.78	21.5
3155.6	23
3156.42	25
3157.23	24.5
3158.05	23.5
3158.87	22.5
3159.69	16
3160.51	22.5
3161.33	22.5
3162.15	22.5
3162.97	20
3163.79	25.5
3164.6	23
3165.42	24.5
3166.24	25
3167.06	20
3167.88	24.5
3168.69	24
3169.51	20.5
3170.33	26
3171.15	19.5
3171.96	25
3172.78	23
3173.6	24.5
3174.41	23.5
3175.23	21
3176.05	22
3176.86	21
3177.68	23
3178.5	21
3179.31	22
3180.13	21.5
3180.95	21.5
3181.76	19.5
3182.58	17.5
3183.39	24.5
3184.21	23
3185.02	22
3185.84	25.5
3186.65	21
3187.47	20
3188.28	24.5
3189.1	21
3189.91	23.5
3190.73	26
3191.54	22
3192.36	21.5
3193.17	24.5
3193.99	24
3194.8	23
3195.61	23.5
3196.43	22
3197.24	21.5
3198.05	22
3198.87	28
3199.68	21.5
3200.49	21.5
3201.31	25
3202.12	25.5
3202.93	23.5
3203.75	24
3204.56	24
3205.37	19
3206.18	22
3207	23
3207.81	21
3208.62	24
3209.43	26.5
3210.24	23
3211.06	19.5
3211.87	20
3212.68	24.5
3213.49	23
3214.3	26
3215.11	23.5
3215.92	23.5
3216.74	27
3217.55	22.5
3218.36	23.5
3219.17	24
3219.98	19.5
3220.79	25.5
3221.6	21.5
3222.41	22
3223.22	24.5
3224.03	18
3224.84	24
3225.65	24.5
3226.46	21.5
3227.27	24.5
3228.08	23
3228.89	23
3229.7	21.5
3230.5	26
3231.31	20
3232.12	21.5
3232.93	22.5
3233.74	24
3234.55	18.5
3235.36	29
3236.16	24.5
3236.97	23
3237.78	20
3238.59	24
3239.4	22
3240.2	22
3241.01	25
3241.82	25
3242.63	21.5
3243.43	26
3244.24	24
3245.05	24.5
3245.86	21.5
3246.66	22.5
3247.47	27
3248.28	20.5
3249.08	22.5
3249.89	20.5
3250.69	21.5
3251.5	24
3252.31	21
3253.11	28.5
3253.92	25
3254.72	19
3255.53	24
3256.34	24
3257.14	25.5
3257.95	25
3258.75	22.5
3259.56	25
3260.36	26
3261.17	21.5
3261.97	27
3262.77	26
3263.58	25.5
3264.38	23.5
3265.19	22.5
3265.99	22.5
3266.8	23
3267.6	24.5
3268.4	21
3269.21	21
3270.01	23
3270.81	25.5
3271.62	23.5
3272.42	19
3273.22	24
3274.03	24.5
3274.83	23
3275.63	19.5
3276.43	22.5
3277.24	24
3278.04	22
3278.84	21.5
3279.64	22
3280.45	26
3281.25	25
3282.05	26
3282.85	24.5
3283.65	26
3284.46	18.5
3285.26	25.5
3286.06	20.5
3286.86	26.5
3287.66	24
3288.46	25
3289.26	26.5
3290.06	22
3290.86	25
3291.66	24
3292.46	21
3293.26	26.5
3294.06	23.5
3294.86	25
3295.66	26
3296.46	23.5
3297.26	21
3298.06	22
3298.86	25.5
3299.66	25
3300.46	25
3301.26	24.5
3302.06	23.5
3302.86	20
3303.66	25.5
3304.46	23
3305.26	23
3306.05	22.5
3306.85	21
3307.65	26.5
3308.45	25
3309.25	25
3310.04	21
3310.84	24.5
3311.64	25.5
3312.44	20.5
3313.24	23
3314.03	21.5
3314.83	26.5
3315.63	19
3316.42	26
3317.22	24.5
3318.02	25
3318.82	22
3319.61	28
3320.41	24.5
3321.2	24
3322	22
3322.8	24.5
3323.59	25.5
3324.39	25
3325.19	23.5
3325.98	24
3326.78	26
3327.57	22
3328.37	26
3329.16	24
3329.96	21
3330.75	24
3331.55	27
3332.34	20
3333.14	24
3333.93	29.5
3334.73	23.5
3335.52	21.5
3336.32	24
3337.11	21
3337.9	26
3338.7	24
3339.49	22
3340.29	21
3341.08	26.5
3341.87	21.5
3342.67	22.5
3343.46	23.5
3344.25	25.5
3345.05	24
3345.84	21.5
3346.63	24.5
3347.42	25
3348.22	27
3349.01	27.5
3349.8	20
3350.59	25.5
3351.39	23
3352.18	22
3352.97	24
3353.76	29.5
3354.55	25
3355.35	22
3356.14	24.5
3356.93	23
3357.72	24
3358.51	23.5
3359.3	24.5
3360.09	26
3360.88	25
3361.67	26
3362.47	24.5
3363.26	24
3364.05	23
3364.84	22.5
3365.63	21
3366.42	22.5
3367.21	23
3368	23
3368.79	28
3369.58	26
3370.37	26
3371.16	22
3371.95	22.5
3372.73	23.5
3373.52	28
3374.31	23
3375.1	24.5
3375.89	24.5
3376.68	23.5
3377.47	25.5
3378.26	21.5
3379.04	26.5
3379.83	24
3380.62	26
3381.41	22
3382.2	24.5
3382.98	26.5
3383.77	24.5
3384.56	23
3385.35	24.5
3386.14	23.5
3386.92	24.5
3387.71	21.5
3388.5	23.5
3389.28	24
3390.07	22
3390.86	26
3391.64	27.5
3392.43	21.5
3393.22	27.5
3394	25
3394.79	23.5
3395.58	22.5
3396.36	22
3397.15	23.5
3397.93	27
3398.72	22.5
3399.5	24.5
3400.29	23.5
3401.07	27.5
3401.86	27.5
3402.65	25
3403.43	23
3404.22	25
3405	22
3405.79	26.5
3406.57	21.5
3407.35	27
3408.14	26.5
3408.92	20
3409.71	25
3410.49	28
3411.27	20.5
3412.06	25.5
3412.84	24.5
3413.63	23.5
3414.41	25
3415.19	23.5
3415.98	23
3416.76	24
3417.54	22
3418.32	23.5
3419.11	23
3419.89	21.5
3420.67	25.5
3421.46	25
3422.24	23
3423.02	24
3423.8	26.5
3424.58	23
3425.37	20.5
3426.15	22.5
3426.93	20.5
3427.71	24.5
3428.49	24
3429.27	21
3430.06	22.5
3430.84	23.5
3431.62	28
3432.4	21
3433.18	25
3433.96	25.5
3434.74	18.5
3435.52	23.5
3436.3	22.5
3437.08	22
3437.86	22
3438.64	22
3439.42	25.5
3440.2	23
3440.98	27.5
3441.76	21.5
3442.54	22
3443.32	24
3444.1	26
3444.88	24.5
3445.66	27
3446.44	23.5
3447.22	27.5
3448	24
3448.78	24
3449.55	27
3450.33	26
3451.11	24
3451.89	22
3452.67	25
3453.45	25
3454.22	24.5
3455	24
3455.78	19
3456.56	25
3457.33	24
3458.11	24
3458.89	23
3459.67	26.5
3460.44	22
3461.22	22.5
3462	27
3462.77	27.5
3463.55	27
3464.33	22.5
3465.1	24.5
3465.88	22.5
3466.66	25.5
3467.43	20
3468.21	22
3468.99	21
3469.76	22
3470.54	17
3471.31	24
3472.09	23
3472.86	21
3473.64	19.5
3474.41	20.5
3475.19	25
3475.96	22
3476.74	22.5
3477.51	27
3478.29	23
3479.06	26.5
3479.84	22
3480.61	23
3481.39	22.5
3482.16	23
3482.93	26.5
3483.71	22
3484.48	24
3485.26	24
3486.03	24.5
3486.8	19
3487.58	27
3488.35	25
3489.12	22
3489.9	27
3490.67	23
3491.44	25
3492.21	22
3492.99	22
3493.76	26
3494.53	21
3495.3	25.5
3496.08	22
3496.85	20.5
3497.62	26
3498.39	27
3499.16	24.5
3499.94	27.5
