#Acq. time (s)=	5
#Accumulations=	5
#Range (cm-ｹ)=	100...3500
#Windows=	4
#Autofocus=	Off
#AutoExposure=	Off
#Spike filter=	Multiple accum.
#Delay time (s)=	0
#Binning=	1
#Readout mode=	Signal
#DeNoise=	Off
#ICS correction=	Off
#Dark correction=	Off
#Inst. Process=	Off
#Instrument=	LabRAM HR Evol
#Detector=	Syncerity OE
#Objective=	x100_VIS
#Grating=	600 (500nm)
#ND Filter=	25%
#Laser=	633nm_Edge
#Hole=	100.021
#Range=	Visible
#Project=	verificaciones
#Sample=	a3
#Site=	lined
#Title=	bolusa3lined
#Remark=	
#Date=	12.01.2026 16:25
#Acquired=	12.01.2026 16:25:08
100.666	21.5
101.95	28.5
103.233	30.5
104.516	27.5
105.799	28
107.083	26
108.365	26.5
109.648	25.5
110.93	30.5
112.212	26
113.493	26.5
114.775	24
116.056	27
117.337	29.5
118.618	23.5
119.898	28
121.178	28
122.459	22
123.739	26
125.018	24.5
126.298	28.5
127.577	26.5
128.856	26
130.135	27
131.414	28
132.692	28.5
133.971	25
135.249	27
136.525	24.5
137.803	29.5
139.08	27
140.357	27.5
141.634	28
142.911	28
144.188	27
145.464	27
146.74	31.5
148.015	28.5
149.291	29
150.566	27
151.842	28.5
153.117	29.5
154.392	30.5
155.665	27
156.939	30
158.214	27
159.488	26.5
160.76	30
162.034	28.5
163.307	31
164.581	29
165.854	29.5
167.125	29
168.398	27
169.67	25
170.941	34.5
172.213	27.5
173.485	28.5
174.756	27.5
176.026	27
177.298	26.5
178.569	30.5
179.838	27.5
181.109	30
182.379	27
183.648	31.5
184.918	30
186.187	29.5
187.455	30
188.725	25
189.992	29
191.261	29
192.53	28.5
193.797	32.5
195.065	25
196.332	30.5
197.6	31
198.866	28
200.134	29
201.401	28
202.667	29.5
203.933	27
205.199	29
206.465	29
207.73	31
208.996	25.5
210.26	30.5
211.526	27.5
212.79	29
214.055	29
215.319	27.5
216.582	21
217.847	28.5
219.11	28
220.374	25.5
221.636	30
222.9	30.5
224.162	28.5
225.424	25
226.687	24
227.949	28
229.212	20
230.473	27.5
231.734	28.5
232.996	29
234.256	23.5
235.517	29
236.778	28
238.038	28
239.298	24
240.559	28.5
241.818	27.5
243.077	27.5
244.337	29
245.596	24
246.854	26
248.113	25.5
249.372	26
250.63	26
251.887	27.5
253.145	24
254.404	27
255.661	25.5
256.917	26
258.174	22
259.432	26
260.688	25
261.944	23
263.2	28
264.456	28
265.711	26.5
266.968	29
268.223	22.5
269.477	21.5
270.732	28
271.986	24
273.24	29
274.494	24
275.748	26
277.003	29.5
278.257	26
279.51	29
280.763	29.5
282.015	24.5
283.268	23
284.52	25.5
285.773	25
287.024	22.5
288.276	27
289.528	27
290.779	28
292.03	28
293.281	28.5
294.532	26
295.782	25.5
297.033	25
298.283	26.5
299.533	27
300.783	26
302.032	26.5
303.281	24.5
304.531	24.5
305.78	28
307.028	30
308.275	25
309.524	27
310.772	27
312.02	24.5
313.267	23
314.515	26
315.762	25.5
317.009	23.5
318.255	27
319.501	24
320.748	25.5
321.994	27.5
323.24	25.5
324.486	28
325.731	23
326.976	24.5
328.221	28
329.466	29.5
330.71	24
331.955	30
333.199	27
334.443	28.5
335.686	25
336.93	29
338.174	28
339.417	24
340.659	27
341.902	29
343.145	27.5
344.386	24
345.629	24
346.871	28.5
348.112	25.5
349.354	25.5
350.595	26
351.836	25
353.077	28
354.318	31.5
355.557	29.5
356.798	31.5
358.037	28.5
359.277	26
360.518	23.5
361.756	24
362.996	26.5
364.234	27.5
365.473	24.5
366.711	26
367.95	24
369.187	25
370.426	26
371.662	28
372.901	25.5
374.137	22
375.375	26
376.611	22.5
377.848	24
379.084	27
380.321	29
381.556	23.5
382.793	23
384.027	24
385.264	27.5
386.498	24
387.732	25
388.968	27
390.202	23
391.437	27
392.671	28
393.904	29
395.138	25
396.371	26
397.604	28.5
398.838	25
400.07	29
401.302	25
402.536	25
403.768	24.5
404.999	30
406.232	26.5
407.463	28.5
408.694	26
409.925	26.5
411.157	24.5
412.387	24
413.617	24
414.847	27
416.078	26.5
417.308	28
418.537	27
419.767	26
420.997	25.5
422.226	28.5
423.454	28
424.683	23.5
425.911	25
427.139	28
428.368	27.5
429.596	25.5
430.823	26
432.05	25.5
433.277	25.5
434.504	24
435.731	27
436.957	28
438.185	26
439.411	22.5
440.637	26
441.862	28
443.088	29.5
444.313	27.5
445.538	24.5
446.763	31
447.988	26.5
449.212	27
450.436	23.5
451.661	26.5
452.884	30.5
454.108	24
455.332	26.5
456.555	28.5
457.778	27.5
459.001	29.5
460.224	23
461.446	26.5
462.668	29.5
463.891	26.5
465.111	29.5
466.333	29
467.554	30.5
468.776	27
469.997	25.5
471.218	32
472.439	28.5
473.659	26
474.878	30
476.098	25.5
477.318	32
478.538	31.5
479.758	32
480.977	33.5
482.195	35.5
483.414	39
484.633	31.5
485.851	38
487.07	35
488.287	36
489.505	39.5
490.723	35.5
491.94	34
493.156	32.5
494.374	33
495.591	33
496.806	30
498.023	30.5
499.239	33
500.456	29
501.67	32.5
502.886	30.5
504.102	32
505.316	29
506.531	28
507.745	30.5
508.96	29
510.175	31.5
511.388	27
512.602	27.5
513.815	31.5
515.029	25.5
516.243	30
517.455	26.5
518.669	26
519.88	29
521.093	29
522.305	29
523.518	28.5
524.729	26.5
525.941	23.5
527.151	28
528.363	25
529.574	27
530.785	24
531.995	27.5
533.206	27
534.416	24
535.626	27
536.835	28.5
538.046	26.5
539.254	24
540.463	25
541.673	25
542.881	26
544.09	27.5
545.298	23
546.506	28.5
547.714	29.5
548.922	24
550.13	28
551.337	27
552.544	21
553.751	25.5
554.958	25
556.164	28
557.37	25.5
558.577	27
559.782	26
560.987	26.5
562.194	25.5
563.399	28
564.604	25
565.808	27.5
567.014	26.5
568.218	25
569.422	29
570.626	28.5
571.829	24.5
573.034	30
574.237	27
575.44	29
576.643	27
577.846	28.5
579.048	26
580.252	29.5
581.454	27
582.656	28.5
583.857	24.5
585.059	23
586.26	25
587.461	27
588.662	22
589.863	32.5
591.065	27
592.265	25
593.465	26
594.665	24
595.865	24
597.065	25.5
598.264	26
599.463	24.5
600.662	27.5
601.861	24.5
603.06	26.5
604.258	25.5
605.457	23
606.655	23.5
607.853	25
609.05	24
610.248	24
611.444	26
612.641	27
613.838	26
615.034	25
616.231	25.5
617.427	28.5
618.624	29
619.82	27.5
621.015	27
622.21	28.5
623.405	29.5
624.6	29.5
625.795	26
626.99	27.5
628.185	25
629.378	25.5
630.572	29.5
631.766	31.5
632.96	25
634.154	29
635.346	30
636.54	27
637.733	26
638.926	27
640.117	28
641.31	32
642.502	28
643.693	22.5
644.885	29
646.077	25.5
647.267	28
648.459	25.5
649.65	25.5
650.84	25
652.031	28
653.222	28.5
654.411	25.5
655.601	28.5
656.791	28
657.98	23
659.17	30
660.358	24
661.547	28.5
662.737	27
663.924	24.5
665.113	27.5
666.3	27.5
667.489	30.5
668.676	27.5
669.864	28.5
671.05	27
672.238	28
673.424	28
674.612	28
675.798	31
676.985	27
678.17	28.5
679.357	28
680.542	28
681.728	29.5
682.913	30.5
684.097	26.5
685.283	28
686.467	26
687.652	31
688.836	28
690.02	29.5
691.205	23
692.388	28.5
693.571	31
694.755	28
695.938	29
697.12	25
698.304	23.5
699.486	26
700.668	32
701.851	31
703.032	28.5
704.214	29.5
705.395	33.5
706.577	32
707.758	36.5
708.939	34
710.119	32
711.301	37
712.481	29.5
713.661	31
714.84	27.5
716.02	25.5
717.201	31
718.38	24
719.559	28
720.737	29
721.916	24
723.094	27.5
724.274	28.5
725.452	24
726.63	30.5
727.808	26.5
728.985	27
730.162	27
731.339	26.5
732.516	28.5
733.693	27.5
734.87	27.5
736.046	26.5
737.222	25
738.398	28.5
739.574	25.5
740.75	26
741.925	28
743.1	27
744.276	27.5
745.45	24
746.625	26
747.8	29
748.974	28
750.148	27
751.322	25
752.496	26.5
753.67	25.5
754.843	24
756.016	27.5
757.189	25
758.362	30.5
759.534	23.5
760.706	27.5
761.878	28
763.051	29
764.223	25
765.394	24
766.565	30
767.736	26.5
768.907	28.5
770.078	27.5
771.249	31
772.419	29
773.589	25.5
774.759	28
775.93	30
777.098	26
778.268	26.5
779.438	25
780.607	27.5
781.775	27.5
782.944	24
784.113	28
785.28	30
786.449	23
787.617	26
788.784	25.5
789.952	30.5
791.12	28.5
792.286	33
793.453	26
794.62	29.5
795.786	26.5
796.953	25
798.118	25.5
799.285	21.5
800.45	28.5
801.616	24
802.782	25.5
803.946	24
805.112	28
806.276	26
807.441	19
808.605	21.5
809.77	23.5
810.933	27.5
812.098	28
813.261	27
814.425	24.5
815.588	23
816.75	28
817.914	26.5
819.076	27
820.239	25.5
821.401	26.5
822.564	22
823.725	27
824.886	22.5
826.048	29.5
827.209	26
828.37	25
829.532	23.5
830.692	27
831.852	21.5
833.013	28
834.173	23.5
835.333	28
836.493	22
837.653	28.5
838.812	26.5
839.972	27
841.13	24.5
842.289	27
843.447	24.5
844.607	27.5
845.765	27.5
846.922	25
848.08	26.5
849.237	28.5
850.396	26
851.553	23
852.71	25
853.867	29
855.023	28
856.179	24.5
857.337	25.5
858.493	24.5
859.649	29
860.804	26.5
861.96	24
863.115	32
864.27	25.5
865.425	29
866.58	27
867.734	25.5
868.888	25
870.043	30
871.197	28.5
872.35	25.5
873.504	27
874.658	25
875.811	25.5
876.964	23.5
878.117	30
879.27	26
880.422	31
881.575	30.5
882.727	25.5
883.879	23
885.031	24
886.182	25.5
887.334	28.5
888.485	28
889.636	25
890.787	24
891.937	22.5
893.088	24
894.238	27
895.388	30
896.538	25
897.688	31
898.837	27
899.986	23
901.136	27
902.285	28
903.434	27.5
904.581	26.5
905.73	25
906.878	22.5
908.027	25.5
909.174	26.5
910.321	22.5
911.469	26
912.617	24
913.763	20.5
914.91	27
916.057	24.5
917.203	21
918.35	25
919.496	23.5
920.641	26
921.787	24.5
922.933	25.5
924.078	26.5
925.224	25.5
926.368	25.5
927.513	25.5
928.658	26
929.802	31
930.946	25
932.09	23
933.234	25.5
934.377	25.5
935.521	25.5
936.664	26
937.807	25
938.95	25
940.093	25
941.235	28.5
942.378	25
943.519	22
944.662	27
945.803	28.5
946.946	24
948.086	25.5
949.227	23
950.369	27
951.509	25
952.651	24
953.79	19
954.93	26.5
956.071	26.5
957.211	27.5
958.35	27
959.49	26.5
960.629	25
961.768	27
962.908	24
964.046	27
965.184	24.5
966.323	27
967.461	26
968.599	23
969.736	25
970.875	26.5
972.012	25
973.149	27.5
974.286	27.5
975.424	25
976.56	26
977.697	25.5
978.833	23.5
979.969	25
981.104	27
982.241	26
983.377	24
984.512	25
985.647	26
986.782	27
987.916	28
989.051	21.5
990.185	25
991.321	21.5
992.455	25
993.589	26.5
994.722	25.5
995.856	20
996.989	25
998.122	28.5
999.255	26
1000.39	24
1001.52	26
1002.65	24.5
1003.79	29.5
1004.92	26.5
1006.05	23.5
1007.18	24
1008.31	28
1009.44	21.5
1010.57	24.5
1011.7	24
1012.84	24.5
1013.97	24
1015.1	25
1016.23	24
1017.36	27
1018.49	23
1019.62	26
1020.75	24.5
1021.88	23.5
1023	23.5
1024.13	24.5
1025.26	24
1026.39	26
1027.52	23.5
1028.65	24
1029.78	23.5
1030.9	26
1032.03	21.5
1033.16	22.5
1034.29	24
1035.41	21
1036.54	25
1037.67	23
1038.79	25
1039.92	24
1041.04	23.5
1042.17	24.5
1043.3	24.5
1044.42	23.5
1045.55	23.5
1046.67	25
1047.8	26.5
1048.92	25.5
1050.05	24.5
1051.17	27.5
1052.3	23
1053.42	23
1054.54	25
1055.67	27
1056.79	23.5
1057.91	22
1059.04	25.5
1060.16	21.5
1061.28	26
1062.41	24
1063.53	25.5
1064.65	28.5
1065.77	25
1066.9	27
1068.02	26
1069.14	24
1070.26	24
1071.38	26.5
1072.5	23
1073.62	29
1074.74	21.5
1075.86	24.5
1076.98	25
1078.1	23
1079.22	26
1080.34	24.5
1081.46	27
1082.58	25
1083.7	24.5
1084.82	21.5
1085.94	27
1087.06	27
1088.18	25
1089.29	27
1090.41	25.5
1091.53	29
1092.65	24.5
1093.77	22.5
1094.88	24
1096	22.5
1097.12	21.5
1098.23	25.5
1099.35	25.5
1100.47	25.5
1101.58	23
1102.7	22
1103.82	24
1104.93	21
1106.05	28.5
1107.16	25.5
1108.28	21.5
1109.39	24
1110.51	26
1111.62	27.5
1112.74	23
1113.85	24.5
1114.96	22.5
1116.08	25
1117.19	24.5
1118.31	27.5
1119.42	28
1120.53	22
1121.65	24
1122.76	22.5
1123.87	25.5
1124.98	20.5
1126.1	23
1127.21	25
1128.32	20.5
1129.43	26.5
1130.54	28
1131.65	23
1132.76	20.5
1133.88	26.5
1134.99	23
1136.1	24
1137.21	22.5
1138.32	26
1139.43	25.5
1140.54	24
1141.65	22.5
1142.76	28.5
1143.87	22.5
1144.98	23.5
1146.08	26
1147.19	26.5
1148.3	21.5
1149.41	21.5
1150.52	23.5
1151.63	23
1152.73	25.5
1153.84	24.5
1154.95	27.5
1156.06	26.5
1157.17	24
1158.27	25
1159.38	21.5
1160.49	24.5
1161.59	22.5
1162.7	25
1163.8	18
1164.91	28
1166.02	29
1167.12	26
1168.23	24.5
1169.33	25
1170.44	25
1171.54	26
1172.65	23.5
1173.75	21.5
1174.86	24.5
1175.96	25.5
1177.06	27.5
1178.17	22.5
1179.27	27
1180.37	24.5
1181.48	25.5
1182.58	25.5
1183.68	24
1184.79	20
1185.89	26.5
1186.99	22.5
1188.09	27
1189.2	19.5
1190.3	25.5
1191.4	22.5
1192.5	22
1193.6	24
1194.7	24.9824
1195.8	19.0177
1196.9	25.9805
1198.01	23.0921
1199.11	21.1611
1200.21	22.182
1201.31	25.4741
1202.41	27.8053
1203.5	25.8276
1204.6	23.2996
1205.7	22.0367
1206.8	23.0148
1207.9	21.839
1209	18.795
1210.1	21.5296
1211.2	24.7092
1212.3	23.4581
1213.39	25.2354
1214.49	22.342
1215.59	23.3659
1216.69	24.5661
1217.78	26.6315
1218.88	26.3321
1219.98	23.8749
1221.08	25.3083
1222.17	25.4283
1223.27	24.6495
1224.37	23.2072
1225.46	24.0664
1226.56	27.131
1227.65	21.276
1228.75	22.8793
1229.84	23.7977
1230.94	24.8293
1232.03	24.6201
1233.13	22.6116
1234.22	22.0022
1235.32	26.6392
1236.41	23.0139
1237.51	24.7583
1238.6	20.4663
1239.69	22.6981
1240.79	22.0012
1241.88	23.367
1242.97	25.2024
1244.07	23.5
1245.16	23.5515
1246.25	24.7143
1247.35	23.7804
1248.44	24.2013
1249.53	22.8842
1250.62	24.8869
1251.71	22.5745
1252.81	25.9697
1253.9	23.9171
1254.99	23.5541
1256.08	21.5522
1257.17	19.8166
1258.26	22.1344
1259.35	24.8118
1260.44	25.373
1261.53	25.0781
1262.62	23.7401
1263.71	23.8992
1264.8	25.7173
1265.89	23.9068
1266.98	24.6772
1268.07	22.9411
1269.16	21.2425
1270.25	24.9683
1271.34	20.8313
1272.43	23.3066
1273.52	24.7039
1274.6	22.4036
1275.69	25.5919
1276.78	23.7568
1277.87	23.307
1278.95	22.1339
1280.04	23.0764
1281.13	21.7192
1282.22	24.4756
1283.3	21.5978
1284.39	23.314
1285.48	24.5966
1286.56	23.1959
1287.65	24.407
1288.73	21.356
1289.82	23.939
1290.91	23.5173
1291.99	22.9345
1293.08	23.4603
1294.16	23.4949
1295.24	24.9983
1296.33	22.8445
1297.41	21.8947
1298.5	24.1127
1299.58	23.5171
1300.67	21.4995
1301.75	24.4523
1302.83	25.7961
1303.92	21.9692
1305	24.476
1306.08	22.0892
1306.4	20.5
1307.49	25
1308.58	24.5
1309.66	24.5
1310.75	22.5
1311.84	26
1312.93	25.5
1314.01	26.5
1315.1	23
1316.19	24
1317.27	28
1318.36	26.5
1319.45	20.5
1320.53	24
1321.62	23.5
1322.71	27
1323.79	24
1324.88	26.5
1325.96	20
1327.05	23
1328.13	27
1329.22	26.5
1330.3	18
1331.39	23
1332.47	22
1333.55	26.5
1334.64	24
1335.72	24
1336.81	24
1337.89	25
1338.97	24
1340.06	25.5
1341.14	23.5
1342.22	21.5
1343.3	25
1344.39	23
1345.47	21.5
1346.55	19.5
1347.63	21
1348.71	28
1349.8	22
1350.88	27
1351.96	23.5
1353.04	22.5
1354.12	26
1355.2	21
1356.28	23
1357.36	24.5
1358.44	24.5
1359.52	22.5
1360.6	24.5
1361.68	24.5
1362.76	24
1363.84	27.5
1364.92	24
1366	24
1367.08	23
1368.16	23.5
1369.23	23
1370.31	22.5
1371.39	24
1372.47	23
1373.55	25.5
1374.62	26
1375.7	21.5
1376.78	24
1377.86	22.5
1378.93	24
1380.01	24
1381.09	26
1382.16	27.5
1383.24	22.5
1384.32	23.5
1385.39	27
1386.47	26.5
1387.54	26
1388.62	23
1389.69	24
1390.77	24
1391.84	25
1392.92	23.5
1393.99	25.5
1395.07	26
1396.14	21.5
1397.21	22
1398.29	27.5
1399.36	26.5
1400.44	26.5
1401.51	26.5
1402.58	26
1403.66	27
1404.73	23.5
1405.8	25
1406.87	24
1407.95	26
1409.02	22.5
1410.09	26
1411.16	30.5
1412.23	27
1413.3	29.5
1414.38	30.5
1415.45	24
1416.52	25.5
1417.59	28
1418.66	24.5
1419.73	25
1420.8	26
1421.87	23
1422.94	24.5
1424.01	24.5
1425.08	25.5
1426.15	24.5
1427.22	29.5
1428.29	24
1429.36	24
1430.43	28
1431.49	25
1432.56	27.5
1433.63	25
1434.7	19.5
1435.77	24
1436.83	25
1437.9	25
1438.97	23
1440.04	27
1441.1	24.5
1442.17	25
1443.24	25.5
1444.3	22
1445.37	22.5
1446.44	27.5
1447.5	26
1448.57	24
1449.63	22
1450.7	22.5
1451.77	25
1452.83	24.5
1453.9	24.5
1454.96	27.5
1456.03	28
1457.09	25
1458.15	24.5
1459.22	23
1460.28	25.5
1461.35	21
1462.41	24
1463.47	23.5
1464.54	23
1465.6	20.5
1466.66	24.5
1467.73	25
1468.79	27.5
1469.85	25
1470.91	25.5
1471.98	28
1473.04	23
1474.1	23
1475.16	23
1476.22	28
1477.28	21.5
1478.35	26.5
1479.41	27
1480.47	23
1481.53	27.5
1482.59	24
1483.65	25.5
1484.71	22
1485.77	27
1486.83	24
1487.89	24.5
1488.95	25
1490.01	24.5
1491.07	25
1492.13	23.5
1493.18	26
1494.24	25.5
1495.3	25
1496.36	25
1497.42	22
1498.48	26
1499.53	26
1500.59	26.5
1501.65	27
1502.71	22
1503.76	24
1504.82	23
1505.88	26
1506.93	23.5
1507.99	24.5
1509.05	28.5
1510.1	26.5
1511.16	26.5
1512.21	22
1513.27	22
1514.33	24.5
1515.38	24
1516.44	26
1517.49	25.5
1518.55	27
1519.6	23.5
1520.66	22
1521.71	23
1522.76	27.5
1523.82	28.5
1524.87	20.5
1525.93	26.5
1526.98	22
1528.03	25.5
1529.08	24
1530.14	24.5
1531.19	26
1532.24	22
1533.3	22.5
1534.35	24
1535.4	22
1536.45	28.5
1537.5	25
1538.56	23
1539.61	23.5
1540.66	24
1541.71	22
1542.76	26
1543.81	23.5
1544.86	27.5
1545.91	22
1546.96	23.5
1548.01	25.5
1549.06	25
1550.11	27.5
1551.16	27.5
1552.21	23.5
1553.26	20
1554.31	23.5
1555.36	24
1556.41	29
1557.46	28.5
1558.51	22.5
1559.56	24.5
1560.6	23
1561.65	26.5
1562.7	21.5
1563.75	29
1564.79	26.5
1565.84	25.5
1566.89	24
1567.94	27
1568.98	22
1570.03	22.5
1571.08	25.5
1572.12	26.5
1573.17	26
1574.22	28
1575.26	23
1576.31	25
1577.35	25.5
1578.4	25
1579.44	25.5
1580.49	25
1581.53	25
1582.58	23
1583.62	28
1584.67	23
1585.71	26
1586.76	22.5
1587.8	23.5
1588.84	24.5
1589.89	22.5
1590.93	26
1591.97	25
1593.02	25
1594.06	25
1595.1	28
1596.14	27
1597.19	26.5
1598.23	26
1599.27	24
1600.31	26
1601.36	29
1602.4	21
1603.44	25
1604.48	26.5
1605.52	25
1606.56	24
1607.6	24
1608.64	27
1609.68	21.5
1610.72	23
1611.76	22
1612.81	24
1613.84	28.5
1614.88	23.5
1615.92	24
1616.96	25
1618	25
1619.04	23.5
1620.08	25.5
1621.12	28
1622.16	23
1623.2	24.5
1624.23	27.5
1625.27	25
1626.31	23.5
1627.35	20.5
1628.39	27
1629.42	26.5
1630.46	29
1631.5	21
1632.53	23.5
1633.57	21
1634.61	23
1635.64	20
1636.68	25.5
1637.72	23
1638.75	26.5
1639.79	24
1640.82	24.5
1641.86	22.5
1642.89	28
1643.93	24
1644.96	24.5
1646	24.5
1647.03	28
1648.07	26
1649.1	25.5
1650.14	25
1651.17	25.5
1652.21	21
1653.24	22.5
1654.27	21
1655.31	24
1656.34	24.5
1657.37	23.5
1658.41	26
1659.44	24
1660.47	28
1661.5	27
1662.53	24.5
1663.57	24
1664.6	25
1665.63	25
1666.66	26
1667.69	23
1668.72	26
1669.76	27
1670.79	23
1671.82	25
1672.85	26.5
1673.88	23
1674.91	27.5
1675.94	23
1676.97	25
1678	24
1679.03	25
1680.06	23
1681.09	24
1682.12	23
1683.15	23
1684.17	25
1685.2	22.5
1686.23	24
1687.26	25.5
1688.29	23
1689.32	27
1690.34	24
1691.37	21.5
1692.4	26.5
1693.43	27.5
1694.45	25
1695.48	26.5
1696.51	24.5
1697.54	23
1698.56	19.5
1699.59	25
1700.61	25
1701.64	24.5
1702.67	19
1703.69	28
1704.72	25.5
1705.74	21
1706.77	24
1707.79	26
1708.82	25
1709.84	24
1710.87	25.5
1711.89	20
1712.92	23
1713.94	24
1714.97	26
1715.99	25.5
1717.01	27
1718.04	24
1719.06	26
1720.08	22
1721.11	23
1722.13	23.5
1723.15	26
1724.18	26
1725.2	28
1726.22	22
1727.24	23.5
1728.26	26
1729.29	25
1730.31	25
1731.33	25.5
1732.35	29
1733.37	27
1734.39	25.5
1735.41	25
1736.43	22
1737.45	24.5
1738.47	26.5
1739.5	25
1740.52	22.5
1741.53	25.5
1742.55	27
1743.57	26
1744.59	27
1745.61	27
1746.63	23
1747.65	26.5
1748.67	23
1749.69	22.5
1750.71	24.5
1751.72	22
1752.74	25.5
1753.76	25
1754.78	28
1755.8	26
1756.81	25.5
1757.83	27.5
1758.85	24.5
1759.87	26
1760.88	27.5
1761.9	23
1762.92	23
1763.93	21
1764.95	23.5
1765.96	24
1766.98	26
1768	28
1769.01	24.5
1770.03	27
1771.04	25.5
1772.06	24
1773.07	20.5
1774.09	24.5
1775.1	26
1776.12	27
1777.13	24.5
1778.15	25
1779.16	25
1780.17	21
1781.19	24
1782.2	24.5
1783.21	26
1784.23	25.5
1785.24	24
1786.25	26
1787.27	25
1788.28	24
1789.29	22.5
1790.3	24
1791.32	26.5
1792.33	27.5
1793.34	29.5
1794.35	19.5
1795.36	24
1796.38	23
1797.39	22
1798.4	26
1799.41	29.5
1800.42	25.5
1801.43	24
1802.44	26
1803.45	27.5
1804.46	25.5
1805.47	21.5
1806.48	23
1807.49	24
1808.5	24.5
1809.51	21.5
1810.52	25.5
1811.53	28
1812.53	24.5
1813.54	26.5
1814.55	28
1815.56	27
1816.57	25
1817.58	21
1818.59	23
1819.59	21
1820.6	25.5
1821.61	26
1822.62	24
1823.62	24
1824.63	18
1825.64	23.5
1826.64	25
1827.65	22
1828.66	22
1829.66	28
1830.67	24.5
1831.67	21
1832.68	24
1833.69	23.5
1834.69	26
1835.7	26.5
1836.7	21.5
1837.71	26
1838.71	25
1839.72	29
1840.72	27
1841.72	20
1842.73	26
1843.73	26
1844.74	26
1845.74	24.5
1846.74	20.5
1847.75	23.5
1848.75	23
1849.75	27
1850.76	26.5
1851.76	25
1852.76	26.5
1853.76	22.5
1854.77	22
1855.77	28
1856.77	26
1857.77	25.5
1858.78	25
1859.78	24.5
1860.78	23
1861.78	23.5
1862.78	21
1863.78	24.5
1864.78	25
1865.78	29
1866.78	22
1867.78	24
1868.78	27
1869.78	28
1870.78	27.5
1871.78	23
1872.78	23
1873.78	24
1874.78	23
1875.78	26
1876.78	21.5
1877.78	24
1878.78	24.5
1879.78	22
1880.77	23.5
1881.77	24
1882.77	24
1883.77	25
1884.77	22
1885.76	23.5
1886.76	27
1887.76	25
1888.75	27.5
1889.75	21
1890.75	28
1891.74	24
1892.74	26
1893.74	24.5
1894.73	22.5
1895.73	23.5
1896.73	26
1897.72	28.5
1898.72	26
1899.71	24
1900.71	27
1901.7	25
1902.7	26
1903.69	24
1904.69	27
1905.68	27
1906.68	22
1907.67	24
1908.66	23.5
1909.66	26.5
1910.65	25.5
1911.64	23
1912.64	23
1913.63	24
1914.62	26
1915.62	22.5
1916.61	26
1917.6	26
1918.6	26
1919.59	19
1920.58	24.5
1921.57	21
1922.56	22
1923.55	29
1924.55	25.5
1925.54	24
1926.53	24.5
1927.52	19.5
1928.51	25.5
1929.5	24
1930.49	25.5
1931.48	27
1932.47	20.5
1933.46	25.5
1934.45	25
1935.44	27.5
1936.43	23
1937.42	26.5
1938.41	24.5
1939.4	22.5
1940.39	26
1941.38	28
1942.37	22.5
1943.36	23.5
1944.35	23
1945.33	23
1946.32	25
1947.31	22
1948.3	23
1949.29	23
1950.27	22.5
1951.26	24.5
1952.25	25.5
1953.24	26
1954.22	21
1955.21	23
1956.2	25.5
1957.18	23
1958.17	28
1959.16	25
1960.14	22.5
1961.13	24.5
1962.11	25.5
1963.1	23.5
1964.08	24
1965.07	24
1966.05	21
1967.04	24.5
1968.02	22.5
1969.01	28.5
1969.99	23
1970.98	26
1971.96	20.5
1972.95	24.5
1973.93	18
1974.91	28
1975.9	19
1976.88	23
1977.86	22.5
1978.85	27.5
1979.83	25
1980.81	20.5
1981.8	28
1982.78	25
1983.76	25.5
1984.74	24
1985.73	25.5
1986.71	23
1987.69	20
1988.67	22
1989.65	28
1990.63	26.5
1991.62	24
1992.6	23.5
1993.58	26.5
1994.56	24.5
1995.54	26.5
1996.52	24
1997.5	24.5
1998.48	23.5
1999.46	22.5
2000.44	19.5
2001.42	22
2002.4	26.5
2003.38	22.5
2004.36	23
2005.34	22.5
2006.32	22
2007.29	23.5
2008.27	24
2009.25	24
2010.23	26.5
2011.21	23.5
2012.19	26.5
2013.17	24
2014.14	22
2015.12	22
2016.1	26
2017.07	23
2018.05	26
2019.03	27
2020.01	22.5
2020.98	24
2021.96	26
2022.94	25
2023.91	21
2024.89	24.5
2025.86	24
2026.84	25.5
2027.82	22.5
2028.79	24.5
2029.77	22
2030.74	24
2031.72	24
2032.69	21
2033.67	23
2034.64	24.5
2035.62	22
2036.59	26
2037.56	28
2038.54	23.5
2039.51	23
2040.49	22.5
2041.46	22
2042.43	22
2043.41	26
2044.38	27.5
2045.35	22.5
2046.32	22.5
2047.3	22
2048.27	21.5
2049.24	20.5
2050.21	25
2051.19	22
2052.16	25
2053.13	25
2054.1	19
2055.07	21.5
2056.05	22.5
2057.02	25.5
2057.99	22.5
2058.96	20.5
2059.93	22
2060.9	23
2061.87	21
2062.84	25
2063.81	23.5
2064.78	20.5
2065.75	22
2066.72	23
2067.69	22
2068.66	22
2069.63	27
2070.6	24
2071.57	22.5
2072.54	20.5
2073.5	26.5
2074.47	26
2075.44	23
2076.41	23
2077.38	25.5
2078.35	23
2079.31	22.5
2080.28	23
2081.25	22.5
2082.22	24.5
2083.18	20
2084.15	25.5
2085.12	22.5
2086.08	25.5
2087.05	22
2088.02	24
2088.98	23.5
2089.95	21
2090.92	23.5
2091.88	24
2092.85	26
2093.81	22.5
2094.78	23.5
2095.74	22
2096.71	23
2097.67	22
2098.64	22
2099.6	20
2100.57	19
2101.53	26
2102.5	24.5
2103.46	26
2104.42	21
2105.39	27
2106.35	22
2107.32	23
2108.28	24
2109.24	23
2110.21	25.5
2111.17	21
2112.13	24.5
2113.09	23
2114.06	23.5
2115.02	24.5
2115.98	22
2116.94	20.5
2117.91	22
2118.87	26
2119.83	24
2120.79	23
2121.75	21.5
2122.71	22.5
2123.67	24.5
2124.63	23
2125.6	24.5
2126.56	27
2127.52	20.5
2128.48	21.5
2129.44	18
2130.4	27
2131.36	24
2132.32	23
2133.28	21
2134.23	25
2135.19	23.5
2136.15	23
2137.11	26
2138.07	23
2139.03	22
2139.99	21.5
2140.95	25
2141.9	21.5
2142.86	21.9914
2143.82	23.4637
2144.78	22.577
2145.74	26.4981
2146.69	24.4563
2147.65	22.9859
2148.61	24.7396
2149.57	20.9929
2150.52	24.0111
2151.48	21.0922
2152.44	19.3409
2153.39	22.1926
2154.35	23.0625
2155.31	21.78
2156.26	23.1595
2157.22	24.1723
2158.17	20.8871
2159.13	21.8563
2160.08	21.505
2161.04	21.784
2161.99	21.2915
2162.95	25.9164
2163.91	21.0816
2164.86	21.9484
2165.81	22.6521
2166.77	25.6619
2167.72	25.1752
2168.68	22.0425
2169.63	24.1361
2170.58	22.5093
2171.54	22.4598
2172.49	22.0954
2173.45	27.2196
2174.4	21.6626
2175.35	21.9279
2176.31	21.054
2177.26	22.0174
2178.21	22.9201
2179.16	23.1424
2180.12	21.7806
2181.07	22.379
2182.02	20.5317
2182.97	23.6811
2183.92	23.9649
2184.88	23.4119
2185.83	21.7676
2186.78	21.8335
2187.73	21.5491
2188.68	24.5291
2189.63	22.9833
2190.58	22.155
2191.53	23.718
2192.49	20.2789
2193.43	23.9917
2194.39	24.3804
2195.34	22.6526
2196.28	22.3557
2197.24	22.6589
2198.19	24.3042
2199.13	23.3549
2200.08	22.454
2201.03	19.9279
2201.98	22.9031
2202.93	23.8546
2203.88	23.024
2204.83	22.4684
2205.78	20.9545
2206.73	23.5762
2207.67	20.4359
2208.62	22.5911
2209.57	20.811
2210.52	22.1358
2211.47	23.2099
2212.41	23.758
2213.36	24.3266
2214.31	20.9944
2215.26	20.3701
2216.2	21.1973
2217.15	19.7082
2218.1	21.0895
2219.04	21.4133
2219.99	22.3431
2220.93	22.7455
2221.88	19.2117
2222.83	22.3699
2223.77	21.5065
2224.72	22.5675
2225.66	24.4462
2226.61	21.6497
2227.55	22.6629
2228.5	23.1435
2229.44	21.1071
2230.39	19.824
2231.33	22.6979
2232.28	22.2752
2233.22	21.0048
2234.17	20.3828
2235.11	20.9018
2236.06	19.6199
2237	22.0916
2237.94	23.7858
2238.89	22.8006
2239.83	22.1178
2240.06	22
2241.01	15.5
2241.96	20.5
2242.9	24
2243.85	20.5
2244.8	22.5
2245.75	21.5
2246.69	23.5
2247.64	23
2248.59	23.5
2249.53	22
2250.48	20.5
2251.43	22.5
2252.37	22
2253.32	20.5
2254.27	19.5
2255.21	23.5
2256.16	23
2257.1	24
2258.05	21
2259	23.5
2259.94	20
2260.89	27
2261.83	20.5
2262.78	20
2263.72	22
2264.67	24
2265.61	22
2266.56	22
2267.5	20.5
2268.44	26
2269.39	21
2270.33	19.5
2271.27	23.5
2272.22	23.5
2273.16	22.5
2274.1	21.5
2275.05	24.5
2275.99	22
2276.93	21.5
2277.88	22
2278.82	22.5
2279.76	24
2280.7	21.5
2281.65	19
2282.59	18
2283.53	20
2284.47	20
2285.41	22.5
2286.35	26.5
2287.29	22
2288.24	20
2289.18	26
2290.12	23.5
2291.06	23
2292	21.5
2292.94	22.5
2293.88	20
2294.82	24
2295.76	22.5
2296.7	24
2297.64	25.5
2298.58	21.5
2299.52	23
2300.46	21.5
2301.4	23
2302.34	23.5
2303.28	23.5
2304.21	21.5
2305.15	20
2306.09	22
2307.03	22
2307.97	24.5
2308.91	22.5
2309.84	23
2310.78	21.5
2311.72	22.5
2312.66	24.5
2313.59	22
2314.53	23.5
2315.47	19.5
2316.4	25.5
2317.34	22.5
2318.28	24.5
2319.22	27.5
2320.15	19
2321.09	21
2322.02	25
2322.96	25
2323.89	25
2324.83	27
2325.77	23
2326.7	24.5
2327.64	26
2328.57	23
2329.51	18
2330.44	21
2331.38	22.5
2332.31	22.5
2333.25	26.5
2334.18	28
2335.11	23
2336.05	21.5
2336.98	26
2337.92	23
2338.85	24.5
2339.78	18.5
2340.72	22
2341.65	20.5
2342.58	23.5
2343.52	24.5
2344.45	24
2345.38	21.5
2346.31	24
2347.25	26
2348.18	25
2349.11	24.5
2350.04	25
2350.97	24
2351.9	20
2352.84	26.5
2353.77	22
2354.7	24
2355.63	25.5
2356.56	18
2357.49	25
2358.42	24
2359.35	22.5
2360.28	26
2361.21	25
2362.14	23.5
2363.07	24
2364	25.5
2364.93	19
2365.86	20
2366.79	22
2367.72	25.5
2368.65	24.5
2369.58	24.5
2370.51	24
2371.44	27.5
2372.36	20
2373.29	20
2374.22	22.5
2375.15	23.5
2376.08	22.5
2377.01	24.5
2377.93	24
2378.86	21
2379.79	27
2380.72	19
2381.64	22.5
2382.57	24.5
2383.5	26
2384.42	24
2385.35	23.5
2386.28	25
2387.2	21.5
2388.13	21.5
2389.06	21
2389.98	26
2390.91	21
2391.83	23
2392.76	18
2393.69	22
2394.61	26
2395.54	18.5
2396.46	26
2397.39	23.5
2398.31	24.5
2399.23	27
2400.16	24
2401.08	24
2402.01	23.5
2402.93	22.5
2403.86	20.5
2404.78	23.5
2405.7	24.5
2406.63	22.5
2407.55	27
2408.47	21.5
2409.4	27
2410.32	21.5
2411.24	24
2412.17	20
2413.09	20
2414.01	21
2414.93	23
2415.85	22
2416.78	21
2417.7	24
2418.62	26
2419.54	21.5
2420.46	23.5
2421.38	24.5
2422.31	24
2423.23	21.5
2424.15	27.5
2425.07	24
2425.99	24
2426.91	20
2427.83	27.5
2428.75	26
2429.67	22
2430.59	24.5
2431.51	23.5
2432.43	24
2433.35	26
2434.27	22.5
2435.19	23
2436.11	26.5
2437.03	24.5
2437.94	24
2438.86	28
2439.78	22.5
2440.7	26.5
2441.62	22.5
2442.54	26
2443.46	25
2444.37	25
2445.29	20.5
2446.21	26
2447.13	27
2448.04	23
2448.96	25
2449.88	23.5
2450.8	20
2451.71	20.5
2452.63	23.5
2453.55	24.5
2454.46	22.5
2455.38	21.5
2456.29	20.5
2457.21	22.5
2458.13	28.5
2459.04	24.5
2459.96	23
2460.87	25
2461.79	24.5
2462.7	26
2463.62	23.5
2464.53	23.5
2465.45	25
2466.36	26
2467.28	18
2468.19	24
2469.11	22.5
2470.02	20.5
2470.93	23
2471.85	24.5
2472.76	24
2473.67	27.5
2474.59	25
2475.5	18
2476.42	24.5
2477.33	23.5
2478.24	23
2479.15	22
2480.07	23
2480.98	29
2481.89	24
2482.8	25
2483.72	27
2484.63	25
2485.54	22.5
2486.45	22.5
2487.36	23.5
2488.27	26
2489.19	25
2490.1	24
2491.01	25
2491.92	25
2492.83	25
2493.74	25
2494.65	23
2495.56	25.5
2496.47	22.5
2497.38	24
2498.29	24.5
2499.2	23.5
2500.11	21
2501.02	27
2501.93	25
2502.84	27
2503.75	21.5
2504.66	28
2505.57	25
2506.47	24
2507.38	23
2508.29	23
2509.2	26
2510.11	22
2511.02	27
2511.92	25
2512.83	25
2513.74	23.5
2514.65	24
2515.55	24
2516.46	25
2517.37	25
2518.28	25
2519.18	25
2520.09	26
2521	22.5
2521.9	26
2522.81	23
2523.72	21
2524.62	22
2525.53	25
2526.43	21
2527.34	23
2528.24	23
2529.15	23.5
2530.06	22.5
2530.96	28
2531.87	26
2532.77	21.5
2533.68	23.5
2534.58	26.5
2535.48	23
2536.39	20.5
2537.29	27.5
2538.2	26
2539.1	23
2540	24
2540.91	23.5
2541.81	23.5
2542.72	20.5
2543.62	23
2544.52	22.5
2545.42	25.5
2546.33	27.5
2547.23	24.5
2548.13	22
2549.04	26
2549.94	22
2550.84	23.5
2551.74	23
2552.64	27.5
2553.55	27.5
2554.45	27.5
2555.35	25.5
2556.25	23.5
2557.15	25
2558.05	25.5
2558.95	24.5
2559.85	24.5
2560.76	25
2561.66	24
2562.56	21.5
2563.46	23.5
2564.36	23
2565.26	21.5
2566.16	24
2567.06	24
2567.96	19.5
2568.86	25.5
2569.76	25
2570.66	25
2571.55	23.5
2572.45	21.5
2573.35	23.5
2574.25	30.5
2575.15	24
2576.05	23
2576.95	27
2577.84	26
2578.74	27.5
2579.64	21.5
2580.54	24
2581.44	23.5
2582.33	22
2583.23	22
2584.13	19
2585.03	25.5
2585.92	22.5
2586.82	23.5
2587.72	22
2588.61	21
2589.51	21.5
2590.41	23
2591.3	23
2592.2	25.5
2593.09	19.5
2593.99	23
2594.89	18
2595.78	21.5
2596.68	20
2597.57	26
2598.47	21
2599.36	24
2600.26	24.5
2601.15	27.5
2602.05	24.5
2602.94	19
2603.84	24.5
2604.73	25
2605.63	25.5
2606.52	26.5
2607.41	27
2608.31	23.5
2609.2	20
2610.09	27
2610.99	21.5
2611.88	25
2612.77	25.5
2613.67	25
2614.56	22.5
2615.45	24.5
2616.35	21.5
2617.24	23.5
2618.13	19
2619.02	23
2619.91	25
2620.81	22
2621.7	24.5
2622.59	22
2623.48	25
2624.37	24
2625.26	20
2626.15	24.5
2627.05	20
2627.94	24
2628.83	20.5
2629.72	26
2630.61	24
2631.5	25
2632.39	25
2633.28	24
2634.17	26
2635.06	23
2635.95	26
2636.84	23.5
2637.73	22.5
2638.62	25.5
2639.51	21.5
2640.4	21.5
2641.28	25.5
2642.17	24
2643.06	25
2643.95	24.5
2644.84	19.5
2645.73	25.5
2646.62	24
2647.5	23
2648.39	26
2649.28	24
2650.17	26.5
2651.05	24.5
2651.94	26
2652.83	22
2653.72	23
2654.6	26.5
2655.49	23.5
2656.38	26.5
2657.26	25
2658.15	25
2659.04	23.5
2659.92	20
2660.81	24
2661.69	24
2662.58	21
2663.47	25
2664.35	24
2665.24	25
2666.12	24
2667.01	22.5
2667.89	24
2668.78	19
2669.66	25
2670.55	21.5
2671.43	23.5
2672.32	24
2673.2	21.5
2674.08	20.5
2674.97	25.5
2675.85	20.5
2676.74	21
2677.62	27
2678.5	23.5
2679.39	22
2680.27	27
2681.15	27.5
2682.04	23
2682.92	27.5
2683.8	24
2684.68	25.5
2685.57	27
2686.45	22
2687.33	26.5
2688.21	25
2689.09	24
2689.98	25
2690.86	22
2691.74	21.5
2692.62	22.5
2693.5	21.5
2694.38	23
2695.27	23.5
2696.15	22
2697.03	22
2697.91	28.5
2698.79	22
2699.67	23.5
2700.55	25
2701.43	23.5
2702.31	21
2703.19	27
2704.07	24.5
2704.95	22
2705.83	23.5
2706.71	26
2707.59	24
2708.47	24
2709.34	19
2710.22	23
2711.1	23.5
2711.98	23.5
2712.86	23.5
2713.74	25
2714.62	23
2715.49	28.5
2716.37	25
2717.25	24.5
2718.13	22.5
2719.01	28
2719.88	20
2720.76	23.5
2721.64	26.5
2722.51	22
2723.39	24
2724.27	20.5
2725.14	24.5
2726.02	22.5
2726.9	25
2727.77	24.5
2728.65	26
2729.53	26
2730.4	25.5
2731.28	23
2732.15	29
2733.03	26
2733.91	23
2734.78	23.5
2735.66	24
2736.53	24.5
2737.41	26.5
2738.28	22
2739.16	23
2740.03	25
2740.9	25.5
2741.78	22.5
2742.65	24.5
2743.53	20
2744.4	25.5
2745.27	26
2746.15	25.5
2747.02	23.5
2747.89	27
2748.77	24
2749.64	23
2750.51	24.5
2751.39	24
2752.26	25.5
2753.13	22
2754.01	25
2754.88	21
2755.75	24
2756.62	23
2757.49	27
2758.37	25.5
2759.24	27
2760.11	22
2760.98	23.5
2761.85	23
2762.72	23
2763.59	23.5
2764.46	23.5
2765.34	28
2766.21	25.5
2767.08	25
2767.95	20.5
2768.82	24
2769.69	22.5
2770.56	20.5
2771.43	22.5
2772.3	24.5
2773.17	26
2774.04	21.5
2774.91	26
2775.78	22.5
2776.65	20
2777.51	27
2778.38	22
2779.25	23
2780.12	26.5
2780.99	24.5
2781.86	28.5
2782.73	27.5
2783.59	26.5
2784.46	26.5
2785.33	20.5
2786.2	25.5
2787.07	21.5
2787.93	25.5
2788.8	23.5
2789.67	22
2790.54	25
2791.4	23.5
2792.27	24.5
2793.14	23
2794	26
2794.87	25
2795.74	23
2796.6	24
2797.47	24
2798.34	27
2799.2	20.5
2800.07	24
2800.93	25
2801.8	25.5
2802.66	23.5
2803.53	28
2804.39	23
2805.26	26
2806.12	25
2806.99	22.5
2807.85	22
2808.72	21
2809.58	33.5
2810.45	24
2811.31	24
2812.18	26.5
2813.04	25
2813.9	23
2814.77	25.5
2815.63	27
2816.49	25.5
2817.36	28
2818.22	22
2819.08	27
2819.95	26
2820.81	23.5
2821.67	23
2822.53	24
2823.4	24
2824.26	23.5
2825.12	22
2825.98	20.5
2826.84	22.5
2827.71	25
2828.57	25.5
2829.43	31.5
2830.29	24.5
2831.15	21
2832.01	24.5
2832.88	23
2833.74	28
2834.6	23.5
2835.46	23
2836.32	26.5
2837.18	21
2838.04	26
2838.9	23
2839.76	26
2840.62	25
2841.48	26
2842.34	23
2843.2	22
2844.06	18
2844.92	26
2845.78	24
2846.63	23
2847.49	22
2848.35	20.5
2849.21	23
2850.07	21
2850.93	20
2851.79	24
2852.64	20
2853.5	24
2854.36	25.5
2855.22	24
2856.08	24
2856.93	22
2857.79	25
2858.65	26.5
2859.51	20.5
2860.36	24
2861.22	23
2862.08	23.5
2862.93	26
2863.79	27
2864.65	21
2865.5	22
2866.36	27.5
2867.22	25
2868.07	24
2868.93	27
2869.78	24.5
2870.64	25
2871.49	24
2872.35	26.5
2873.21	23.5
2874.06	22
2874.91	29
2875.77	24.5
2876.62	28.5
2877.48	22
2878.33	27
2879.19	27.5
2880.04	25
2880.9	26.5
2881.75	27
2882.6	26
2883.46	25.5
2884.31	26.5
2885.17	27.5
2886.02	27.5
2886.87	27
2887.73	28.5
2888.58	30.5
2889.43	28.5
2890.28	23.5
2891.14	27.5
2891.99	27.5
2892.84	29
2893.69	31
2894.55	33.5
2895.4	32
2896.25	27
2897.1	33.5
2897.95	27
2898.8	33.5
2899.66	32.5
2900.51	36
2901.36	35
2902.21	31
2903.06	34.5
2903.91	36.5
2904.76	39
2905.61	38.5
2906.46	33
2907.31	39.5
2908.16	34.5
2909.01	39
2909.86	32
2910.71	32.5
2911.56	29.5
2912.41	31
2913.26	33.5
2914.11	30
2914.96	30.5
2915.81	28
2916.66	31
2917.51	25.5
2918.36	26.5
2919.2	28
2920.05	30.5
2920.9	25
2921.75	27.5
2922.6	24.5
2923.45	28.5
2924.29	24.5
2925.14	25.5
2925.99	26.5
2926.84	27
2927.68	22
2928.53	26
2929.38	25
2930.23	24.5
2931.07	23
2931.92	25
2932.77	25
2933.61	24
2934.46	24
2935.3	23
2936.15	23.5
2937	24
2937.84	25
2938.69	23
2939.53	24
2940.38	22
2941.23	23.5
2942.07	24
2942.92	26.5
2943.76	26
2944.61	22
2945.45	24
2946.3	24
2947.14	19.5
2947.98	26.5
2948.83	30
2949.67	25
2950.52	24.5
2951.36	23
2952.2	27.5
2953.05	24
2953.89	26
2954.74	26
2955.58	30
2956.42	27.5
2957.27	27.5
2958.11	25
2958.95	26.5
2959.79	30
2960.64	28
2961.48	29
2962.32	30.5
2963.16	32
2964.01	25.5
2964.85	30
2965.69	32
2966.53	28
2967.37	24.5
2968.21	26.5
2969.06	29.5
2969.9	28
2970.74	27.5
2971.58	25
2972.42	24.9665
2973.26	26.4917
2974.1	26.6389
2974.94	27.4752
2975.78	26.9493
2976.62	23.5452
2977.46	23.8062
2978.3	26.1189
2979.14	24.6332
2979.98	26.865
2980.82	22.2197
2981.66	22.1988
2982.5	24.0465
2983.34	22.9012
2984.18	26.4767
2985.02	22.0475
2985.86	25.8633
2986.7	22.7387
2987.54	25.3567
2988.38	23.6367
2989.21	25.1263
2990.05	22.7436
2990.89	22.6198
2991.73	19.957
2992.57	24.9017
2993.41	23.0739
2994.24	22.1384
2995.08	23.5033
2995.92	22.446
2996.76	22.6362
2997.59	20.5659
2998.43	24.1191
2999.27	21.6503
3000.1	21.2531
3000.94	22.0279
3001.78	18.2961
3002.61	27.1173
3003.45	23.7358
3004.29	22.9099
3005.12	24.541
3005.96	23.6464
3006.8	22.3828
3007.63	22.8978
3008.47	21.447
3009.3	24.0926
3010.14	22.0333
3010.97	22.6885
3011.81	22.5291
3012.64	23.3583
3013.48	22.2783
3014.31	24.4325
3015.15	21.7846
3015.98	23.5146
3016.82	21.0117
3017.65	20.5467
3018.49	21.7885
3019.32	21.0279
3020.16	22.267
3020.99	22.7105
3021.82	21.6522
3022.66	23.096
3023.49	24.0419
3024.32	21.327
3025.16	21.409
3025.99	21.7819
3026.82	21.5513
3027.66	19.8849
3028.49	20.1246
3029.32	20.3601
3030.16	19.1665
3030.99	22.6562
3031.82	23.4638
3032.65	23.7611
3033.49	24.2029
3034.32	23.8716
3035.15	21.2025
3035.98	19.1783
3036.81	21.3117
3037.64	21.4959
3038.48	22.8626
3039.31	23.2662
3040.14	23.9276
3040.97	24.4825
3041.8	21.969
3042.63	22.8644
3043.46	23.455
3044.29	22.9147
3045.12	23.7421
3045.95	21.0834
3046.78	21.1013
3047.61	20.8321
3048.44	22.9691
3049.27	22.0431
3050.1	19.2846
3050.93	21.5651
3051.76	22.8954
3052.59	22.7447
3053.42	20.8428
3054.25	19.7187
3055.08	22.2151
3055.91	22.6548
3056.74	25.0966
3057.26	22
3058.09	21
3058.92	23.5
3059.76	20
3060.59	20.5
3061.42	23.5
3062.26	27.5
3063.09	20
3063.92	18.5
3064.75	23
3065.59	21.5
3066.42	25
3067.25	24
3068.08	22
3068.91	23.5
3069.74	24.5
3070.58	23.5
3071.41	24
3072.24	21.5
3073.07	22.5
3073.9	24.5
3074.73	21.5
3075.56	20.5
3076.39	19.5
3077.22	20.5
3078.05	23
3078.88	21
3079.71	25
3080.55	27
3081.38	22.5
3082.2	24.5
3083.03	23.5
3083.86	24.5
3084.69	22.5
3085.52	24.5
3086.35	22.5
3087.18	23
3088.01	22
3088.84	23.5
3089.67	23
3090.5	22
3091.33	23.5
3092.15	20
3092.98	22
3093.81	20.5
3094.64	18.5
3095.47	21
3096.29	23.5
3097.12	20
3097.95	21
3098.78	21
3099.6	21.5
3100.43	20
3101.26	26
3102.09	23
3102.91	27
3103.74	19.5
3104.57	23
3105.39	17.5
3106.22	21
3107.05	25
3107.87	21.5
3108.7	24.5
3109.52	25.5
3110.35	22.5
3111.18	24.5
3112	19.5
3112.83	26.5
3113.65	22.5
3114.48	19
3115.3	23.5
3116.13	18
3116.95	25
3117.78	23.5
3118.6	22.5
3119.43	23
3120.25	21
3121.08	24
3121.9	21.5
3122.73	24
3123.55	21
3124.37	23
3125.2	24
3126.02	27.5
3126.84	21
3127.67	25
3128.49	20.5
3129.31	23
3130.14	19
3130.96	23
3131.78	23
3132.61	21
3133.43	24.5
3134.25	23
3135.07	15
3135.9	21.5
3136.72	22
3137.54	24.5
3138.36	24
3139.18	24
3140.01	23
3140.83	22
3141.65	22
3142.47	20
3143.29	23
3144.11	23
3144.93	24.5
3145.75	23
3146.58	21
3147.4	23.5
3148.22	22.5
3149.04	22.5
3149.86	20.5
3150.68	26.5
3151.5	24.5
3152.32	19
3153.14	26
3153.96	20.5
3154.78	21.5
3155.6	22.5
3156.42	21.5
3157.23	28
3158.05	26
3158.87	23.5
3159.69	21.5
3160.51	23
3161.33	24
3162.15	21
3162.97	23
3163.79	25
3164.6	20
3165.42	24.5
3166.24	24
3167.06	21
3167.88	28
3168.69	23.5
3169.51	19.5
3170.33	21
3171.15	22
3171.96	27.5
3172.78	28
3173.6	18
3174.41	23.5
3175.23	22.5
3176.05	22
3176.86	22.5
3177.68	19
3178.5	21
3179.31	26
3180.13	22.5
3180.95	23.5
3181.76	23.5
3182.58	25.5
3183.39	26
3184.21	19
3185.02	23.5
3185.84	25
3186.65	26
3187.47	20
3188.28	24.5
3189.1	24.5
3189.91	20
3190.73	24
3191.54	27
3192.36	22
3193.17	25.5
3193.99	24
3194.8	27
3195.61	22.5
3196.43	24
3197.24	26.5
3198.05	21.5
3198.87	21
3199.68	24.5
3200.49	25.5
3201.31	25
3202.12	21
3202.93	23
3203.75	21
3204.56	24
3205.37	23.5
3206.18	21
3207	23.5
3207.81	23.5
3208.62	21
3209.43	25.5
3210.24	22
3211.06	23.5
3211.87	20.5
3212.68	26
3213.49	24.5
3214.3	23
3215.11	26
3215.92	25.5
3216.74	24
3217.55	24.5
3218.36	23
3219.17	23.5
3219.98	26
3220.79	24.5
3221.6	20.5
3222.41	24
3223.22	23.5
3224.03	24
3224.84	23.5
3225.65	20.5
3226.46	24.5
3227.27	26
3228.08	22.5
3228.89	23.5
3229.7	23
3230.5	26
3231.31	25.5
3232.12	25.5
3232.93	24.5
3233.74	27
3234.55	24.5
3235.36	25.5
3236.16	22.5
3236.97	26.5
3237.78	21
3238.59	25
3239.4	23
3240.2	26.5
3241.01	20
3241.82	20
3242.63	22
3243.43	26
3244.24	21.5
3245.05	24
3245.86	27
3246.66	23.5
3247.47	25.5
3248.28	25
3249.08	23
3249.89	24.5
3250.69	23
3251.5	23
3252.31	22
3253.11	26
3253.92	25.5
3254.72	26
3255.53	20
3256.34	23.5
3257.14	23
3257.95	23
3258.75	22
3259.56	26
3260.36	22.5
3261.17	28
3261.97	24
3262.77	25
3263.58	23
3264.38	25
3265.19	21.5
3265.99	23.5
3266.8	23.5
3267.6	25
3268.4	18.5
3269.21	27
3270.01	24
3270.81	22.5
3271.62	23
3272.42	23.5
3273.22	24
3274.03	23
3274.83	26.5
3275.63	24.5
3276.43	24.5
3277.24	23
3278.04	21
3278.84	24.5
3279.64	24.5
3280.45	20
3281.25	23.5
3282.05	22
3282.85	27
3283.65	23
3284.46	27.5
3285.26	20
3286.06	23.5
3286.86	24
3287.66	24
3288.46	24
3289.26	19
3290.06	22
3290.86	24.5
3291.66	22
3292.46	25
3293.26	23
3294.06	19.5
3294.86	22.5
3295.66	24
3296.46	25.5
3297.26	26.5
3298.06	23
3298.86	25.5
3299.66	19.5
3300.46	25
3301.26	22.5
3302.06	22.5
3302.86	26.5
3303.66	26
3304.46	21
3305.26	21
3306.05	26.5
3306.85	21.5
3307.65	23.5
3308.45	23.5
3309.25	22.5
3310.04	25.5
3310.84	29
3311.64	20
3312.44	26.5
3313.24	24
3314.03	21.5
3314.83	28.5
3315.63	24
3316.42	21.5
3317.22	23.5
3318.02	24
3318.82	26
3319.61	22
3320.41	25.5
3321.2	23
3322	22
3322.8	23.5
3323.59	22
3324.39	21
3325.19	26.5
3325.98	22.5
3326.78	23.5
3327.57	22
3328.37	23
3329.16	25
3329.96	25.5
3330.75	22
3331.55	25.5
3332.34	22
3333.14	23.5
3333.93	23.5
3334.73	23.5
3335.52	20.5
3336.32	19
3337.11	22.5
3337.9	25
3338.7	25
3339.49	22
3340.29	24.5
3341.08	28
3341.87	26.5
3342.67	26.5
3343.46	25
3344.25	22
3345.05	19.5
3345.84	27.5
3346.63	25
3347.42	26
3348.22	24.5
3349.01	26.5
3349.8	24
3350.59	24
3351.39	22.5
3352.18	24
3352.97	20.5
3353.76	24
3354.55	24
3355.35	25.5
3356.14	24.5
3356.93	27
3357.72	23
3358.51	23
3359.3	26
3360.09	25
3360.88	22.5
3361.67	22
3362.47	22.5
3363.26	23.5
3364.05	24
3364.84	22
3365.63	27
3366.42	24.5
3367.21	25.5
3368	22.5
3368.79	26.5
3369.58	21.5
3370.37	22
3371.16	24
3371.95	25
3372.73	26
3373.52	20.5
3374.31	27
3375.1	27
3375.89	23.5
3376.68	28
3377.47	26.5
3378.26	23
3379.04	26
3379.83	20.5
3380.62	24.5
3381.41	25
3382.2	21
3382.98	21.5
3383.77	23
3384.56	24
3385.35	24
3386.14	25
3386.92	21
3387.71	28.5
3388.5	22.5
3389.28	25
3390.07	19
3390.86	23.5
3391.64	26
3392.43	24
3393.22	22
3394	25
3394.79	28
3395.58	21
3396.36	25.5
3397.15	23
3397.93	22
3398.72	23.5
3399.5	22
3400.29	21.5
3401.07	23.5
3401.86	24.5
3402.65	24.5
3403.43	21
3404.22	22
3405	25.5
3405.79	24.5
3406.57	23.5
3407.35	19
3408.14	23.5
3408.92	23.5
3409.71	22
3410.49	23
3411.27	21
3412.06	22
3412.84	26
3413.63	25
3414.41	24.5
3415.19	25.5
3415.98	22.5
3416.76	24
3417.54	23.5
3418.32	25
3419.11	19
3419.89	28.5
3420.67	25
3421.46	28
3422.24	25.5
3423.02	22.5
3423.8	22.5
3424.58	27
3425.37	24
3426.15	22
3426.93	21.5
3427.71	22.5
3428.49	25
3429.27	23
3430.06	21
3430.84	23
3431.62	22.5
3432.4	23
3433.18	26.5
3433.96	23
3434.74	23
3435.52	25
3436.3	22
3437.08	25
3437.86	20.5
3438.64	24.5
3439.42	22.5
3440.2	27
3440.98	27.5
3441.76	22.5
3442.54	23
3443.32	21.5
3444.1	24
3444.88	22
3445.66	28
3446.44	26
3447.22	24.5
3448	23
3448.78	23
3449.55	21
3450.33	21
3451.11	23
3451.89	27
3452.67	22
3453.45	26
3454.22	22.5
3455	23.5
3455.78	20.5
3456.56	23
3457.33	24
3458.11	19.5
3458.89	21.5
3459.67	25.5
3460.44	18.5
3461.22	23.5
3462	23
3462.77	23
3463.55	26
3464.33	26
3465.1	22.5
3465.88	24
3466.66	22
3467.43	23.5
3468.21	22
3468.99	24
3469.76	22.5
3470.54	25.5
3471.31	25
3472.09	25.5
3472.86	25.5
3473.64	22
3474.41	25
3475.19	24
3475.96	24
3476.74	25
3477.51	25
3478.29	24
3479.06	25
3479.84	25
3480.61	22.5
3481.39	20.5
3482.16	25
3482.93	24
3483.71	24.5
3484.48	24.5
3485.26	22
3486.03	24.5
3486.8	25
3487.58	21
3488.35	25
3489.12	23.5
3489.9	24
3490.67	24.5
3491.44	30
3492.21	24
3492.99	23.5
3493.76	22.5
3494.53	22
3495.3	26
3496.08	25
3496.85	22.5
3497.62	21.5
3498.39	24.5
3499.16	23.5
3499.94	24.5
