#Acq. time (s)=	5
#Accumulations=	5
#Range (cm-¹)=	100...3500
#Windows=	4
#Autofocus=	Off
#AutoExposure=	Off
#Spike filter=	Multiple accum.
#Delay time (s)=	0
#Binning=	1
#Readout mode=	Signal
#DeNoise=	Off
#ICS correction=	Off
#Dark correction=	Off
#Inst. Process=	Off
#Instrument=	LabRAM HR Evol
#Detector=	Syncerity OE
#Objective=	x100_VIS
#Grating=	600 (500nm)
#ND Filter=	25%
#Laser=	633nm_Edge
#Hole=	100.021
#Range=	Visible
#Project=	verificaciones
#Sample=	a3
#Site=	lined
#Title=	bolusa3lined
#Remark=	
#Date=	12.01.2026 16:30
#Acquired=	12.01.2026 16:30:09
100.666	20
101.95	29
103.233	28
104.516	27
105.799	27
107.083	26
108.365	28
109.648	27
110.93	31
112.212	24.5
113.493	26
114.775	27
116.056	23
117.337	27
118.618	30
119.898	25.5
121.178	25.5
122.459	27
123.739	27
125.018	26.5
126.298	29
127.577	28.5
128.856	26
130.135	26
131.414	31.5
132.692	26
133.971	28.5
135.249	27
136.525	29
137.803	28
139.08	28.5
140.357	29
141.634	30.5
142.911	33
144.188	24
145.464	32
146.74	29.5
148.015	30
149.291	28
150.566	27
151.842	30
153.117	30.5
154.392	30
155.665	27
156.939	29
158.214	27
159.488	26
160.76	30.5
162.034	27
163.307	29.5
164.581	28
165.854	29.5
167.125	26
168.398	28
169.67	29
170.941	31
172.213	29.5
173.485	29
174.756	30
176.026	31
177.298	27
178.569	31
179.838	27.5
181.109	31
182.379	30.5
183.648	34.5
184.918	29.5
186.187	33
187.455	26.5
188.725	32
189.992	27.5
191.261	30
192.53	29
193.797	31
195.065	29
196.332	30
197.6	27
198.866	32
200.134	28
201.401	27.5
202.667	22.5
203.933	31
205.199	27
206.465	28.5
207.73	26
208.996	28
210.26	29.5
211.526	26.5
212.79	27.5
214.055	24.5
215.319	24
216.582	30
217.847	25.5
219.11	31.5
220.374	28
221.636	22.5
222.9	29
224.162	24.5
225.424	27
226.687	28.5
227.949	27
229.212	30
230.473	26.5
231.734	26
232.996	27.5
234.256	33
235.517	31.5
236.778	28
238.038	25.5
239.298	27
240.559	27
241.818	25.5
243.077	25
244.337	24
245.596	28
246.854	29.5
248.113	21
249.372	24
250.63	25
251.887	27
253.145	29
254.404	28
255.661	29
256.917	27
258.174	30
259.432	24
260.688	28
261.944	29
263.2	28
264.456	25.5
265.711	29.5
266.968	24
268.223	26
269.477	30
270.732	29
271.986	28.5
273.24	28
274.494	25
275.748	26
277.003	27
278.257	28
279.51	28
280.763	25
282.015	26
283.268	24.5
284.52	25
285.773	22
287.024	28
288.276	26
289.528	25.5
290.779	22
292.03	23.5
293.281	24
294.532	27
295.782	25.5
297.033	23.5
298.283	27.5
299.533	27
300.783	24.5
302.032	28.5
303.281	23.5
304.531	28.5
305.78	24.5
307.028	24
308.275	24.5
309.524	29
310.772	27
312.02	24.5
313.267	22
314.515	28
315.762	26.5
317.009	28
318.255	23
319.501	27
320.748	22.5
321.994	26
323.24	26
324.486	29
325.731	23.5
326.976	25
328.221	28
329.466	26
330.71	25
331.955	27
333.199	23
334.443	23
335.686	26
336.93	27
338.174	26
339.417	25.5
340.659	25
341.902	27
343.145	24
344.386	25.5
345.629	28
346.871	27.5
348.112	23
349.354	25.5
350.595	26
351.836	28
353.077	25
354.318	30
355.557	25.5
356.798	30.5
358.037	26
359.277	22
360.518	30.5
361.756	22.5
362.996	26
364.234	24.5
365.473	25
366.711	26
367.95	27.5
369.187	26.5
370.426	26
371.662	25
372.901	27
374.137	24
375.375	27.5
376.611	30
377.848	28
379.084	27.5
380.321	25.5
381.556	25.5
382.793	27.5
384.027	31.5
385.264	27
386.498	25.5
387.732	26
388.968	27.5
390.202	26.5
391.437	25.5
392.671	23.5
393.904	25.5
395.138	25.5
396.371	27
397.604	24
398.838	26.5
400.07	24.5
401.302	28.5
402.536	24.5
403.768	29
404.999	26
406.232	26.5
407.463	28.5
408.694	29.5
409.925	26
411.157	27.5
412.387	26.5
413.617	28.5
414.847	27.5
416.078	23.5
417.308	29
418.537	23
419.767	28
420.997	24
422.226	28
423.454	27.5
424.683	27.5
425.911	23
427.139	26
428.368	28.5
429.596	28
430.823	25.5
432.05	25
433.277	27
434.504	27.5
435.731	25
436.957	29.5
438.185	26.5
439.411	29.5
440.637	26
441.862	27
443.088	25.5
444.313	26.5
445.538	25
446.763	31.5
447.988	25.5
449.212	29
450.436	26
451.661	26
452.884	26
454.108	31
455.332	25.5
456.555	26
457.778	28.5
459.001	25.5
460.224	26
461.446	28.5
462.668	28
463.891	23
465.111	31
466.333	27.5
467.554	23
468.776	26.5
469.997	26
471.218	27
472.439	30
473.659	31.5
474.878	31.5
476.098	28.5
477.318	27.5
478.538	30.5
479.758	32
480.977	34
482.195	34
483.414	33.5
484.633	33.5
485.851	33.5
487.07	35
488.287	35.5
489.505	37.5
490.723	38.5
491.94	32
493.156	31.5
494.374	31.5
495.591	36
496.806	32.5
498.023	31.5
499.239	30
500.456	30
501.67	29.5
502.886	32.5
504.102	30
505.316	28
506.531	28.5
507.745	29
508.96	29.5
510.175	26
511.388	30.5
512.602	27.5
513.815	30
515.029	30
516.243	29.5
517.455	26.5
518.669	28.5
519.88	30
521.093	29
522.305	28.5
523.518	27.5
524.729	25.5
525.941	25.5
527.151	27.5
528.363	27
529.574	32
530.785	28
531.995	27.5
533.206	29
534.416	28
535.626	28.5
536.835	25
538.046	26.5
539.254	26.5
540.463	26
541.673	30.5
542.881	25
544.09	28
545.298	28.5
546.506	30
547.714	28.5
548.922	23.5
550.13	29.5
551.337	29
552.544	24
553.751	19.5
554.958	24.5
556.164	26
557.37	27
558.577	25.5
559.782	26.5
560.987	25.5
562.194	28
563.399	28
564.604	26
565.808	26
567.014	27.5
568.218	24.5
569.422	24.5
570.626	26
571.829	27.5
573.034	21.5
574.237	27.5
575.44	24.5
576.643	27
577.846	28.5
579.048	23
580.252	26
581.454	22
582.656	25
583.857	22
585.059	21.5
586.26	28
587.461	28.5
588.662	27
589.863	27
591.065	25.5
592.265	27.5
593.465	28
594.665	30
595.865	26.5
597.065	29
598.264	27
599.463	24.5
600.662	27.5
601.861	24.5
603.06	27.5
604.258	29
605.457	24
606.655	23
607.853	24.5
609.05	26
610.248	26
611.444	28
612.641	23.5
613.838	30
615.034	24
616.231	27
617.427	24.5
618.624	24.5
619.82	24
621.015	30
622.21	27.5
623.405	25
624.6	25
625.795	29
626.99	30
628.185	28
629.378	24.5
630.572	24.5
631.766	29.5
632.96	25.5
634.154	26.5
635.346	27
636.54	26
637.733	25.5
638.926	27
640.117	25
641.31	26.5
642.502	25.5
643.693	26
644.885	30
646.077	26.5
647.267	26.5
648.459	27
649.65	25
650.84	29
652.031	24.5
653.222	23.5
654.411	27.5
655.601	21.5
656.791	27.5
657.98	31
659.17	26.5
660.358	28.5
661.547	28
662.737	22.5
663.924	27.5
665.113	24
666.3	28
667.489	28.5
668.676	27
669.864	22.5
671.05	27
672.238	30.5
673.424	27.5
674.612	27.5
675.798	27.5
676.985	27
678.17	27.5
679.357	30.5
680.542	28.5
681.728	30.5
682.913	28
684.097	29
685.283	32.5
686.467	26.5
687.652	30.5
688.836	29.5
690.02	26
691.205	27.5
692.388	29
693.571	30.5
694.755	31
695.938	28
697.12	32.5
698.304	26
699.486	22.5
700.668	29
701.851	30
703.032	32.5
704.214	31
705.395	30.5
706.577	30
707.758	29.5
708.939	32
710.119	32.5
711.301	30.5
712.481	30
713.661	31
714.84	27.5
716.02	26.5
717.201	32.5
718.38	28
719.559	28.5
720.737	29
721.916	26.5
723.094	25
724.274	28
725.452	27
726.63	25.5
727.808	25
728.985	25
730.162	27
731.339	20
732.516	30.5
733.693	28
734.87	26
736.046	27
737.222	26
738.398	25
739.574	30
740.75	26.5
741.925	26
743.1	29.5
744.276	24.5
745.45	28
746.625	28
747.8	28.5
748.974	24.5
750.148	28.5
751.322	27.5
752.496	28.5
753.67	26
754.843	24
756.016	25.5
757.189	29
758.362	26
759.534	24.5
760.706	25.5
761.878	28
763.051	23.5
764.223	27
765.394	27.5
766.565	26
767.736	24
768.907	24
770.078	28
771.249	24
772.419	25.5
773.589	26.5
774.759	23
775.93	28
777.098	23
778.268	25.5
779.438	24
780.607	26.5
781.775	30.5
782.944	25
784.113	27
785.28	26.5
786.449	27
787.617	30
788.784	26.5
789.952	25
791.12	27.5
792.286	31.5
793.453	29.5
794.62	26
795.786	27
796.953	26
798.118	27
799.285	27
800.45	26.5
801.616	28
802.782	27
803.946	27
805.112	28
806.276	24
807.441	28.5
808.605	23
809.77	26.5
810.933	27
812.098	31.5
813.261	27
814.425	27.5
815.588	27
816.75	25
817.914	24
819.076	29
820.239	25
821.401	24.5
822.564	24.5
823.725	25.5
824.886	24.5
826.048	24
827.209	26
828.37	26
829.532	26
830.692	28.5
831.852	29.5
833.013	23.5
834.173	25.5
835.333	21.5
836.493	27
837.653	26.5
838.812	27
839.972	23
841.13	21.5
842.289	25
843.447	25.5
844.607	25.5
845.765	26.5
846.922	21.5
848.08	22.5
849.237	30.5
850.396	25.5
851.553	27
852.71	25
853.867	27.5
855.023	27
856.179	26.5
857.337	27.5
858.493	28
859.649	27
860.804	23
861.96	27
863.115	27.5
864.27	29
865.425	28
866.58	27.5
867.734	25.5
868.888	26.5
870.043	27
871.197	25
872.35	28.5
873.504	28
874.658	32.5
875.811	25
876.964	26.5
878.117	27
879.27	27
880.422	26
881.575	33
882.727	27.5
883.879	28
885.031	27
886.182	26
887.334	23
888.485	26.5
889.636	26
890.787	23
891.937	26
893.088	24.5
894.238	24
895.388	25
896.538	25.5
897.688	27.5
898.837	24.5
899.986	27.5
901.136	27
902.285	24.5
903.434	27.5
904.581	24.5
905.73	23
906.878	25.5
908.027	25
909.174	23.5
910.321	22.5
911.469	26.5
912.617	25.5
913.763	23
914.91	25.5
916.057	27
917.203	21
918.35	25
919.496	23
920.641	27
921.787	27
922.933	22.5
924.078	27.5
925.224	25
926.368	23
927.513	26
928.658	25.5
929.802	25
930.946	24
932.09	22
933.234	23
934.377	26
935.521	25
936.664	21.5
937.807	27.5
938.95	24.5
940.093	25
941.235	25
942.378	24.5
943.519	26
944.662	26
945.803	24.5
946.946	28
948.086	22.5
949.227	24.5
950.369	24.5
951.509	29.5
952.651	26.5
953.79	25.5
954.93	25.5
956.071	24
957.211	27
958.35	25
959.49	25
960.629	28.5
961.768	26
962.908	27.5
964.046	27.5
965.184	24
966.323	26.5
967.461	23.5
968.599	25.5
969.736	24.5
970.875	25.75
972.012	24.5
973.149	26.5
974.286	25.5
975.424	23
976.56	26.5
977.697	20
978.833	25
979.969	24.5
981.104	27.5
982.241	26.5
983.377	22
984.512	21.5
985.647	25
986.782	23.5
987.916	26.5
989.051	26
990.185	23
991.321	25.5
992.455	25
993.589	26.5
994.722	28
995.856	26
996.989	24.5
998.122	25
999.255	27.5
1000.39	23.5
1001.52	24.5
1002.65	24
1003.79	29
1004.92	25.5
1006.05	25
1007.18	25.5
1008.31	28.5
1009.44	22
1010.57	27
1011.7	24.5
1012.84	20
1013.97	24.5
1015.1	27
1016.23	27
1017.36	23
1018.49	23.5
1019.62	24
1020.75	26
1021.88	23.5
1023	24
1024.13	23
1025.26	25
1026.39	27
1027.52	26.5
1028.65	26.5
1029.78	24
1030.9	20
1032.03	25.5
1033.16	27.5
1034.29	25.5
1035.41	25
1036.54	24.5
1037.67	29
1038.79	19
1039.92	24
1041.04	20
1042.17	25
1043.3	23.5
1044.42	24.5
1045.55	24.5
1046.67	23.5
1047.8	26
1048.92	27
1050.05	24.5
1051.17	21.5
1052.3	23
1053.42	26.5
1054.54	26
1055.67	25.5
1056.79	24.5
1057.91	24.5
1059.04	25
1060.16	24
1061.28	22.5
1062.41	24
1063.53	27.5
1064.65	26
1065.77	19
1066.9	23.5
1068.02	25.5
1069.14	21.5
1070.26	23.5
1071.38	27
1072.5	23
1073.62	23
1074.74	23.5
1075.86	22
1076.98	24
1078.1	22.5
1079.22	27
1080.34	26
1081.46	23.5
1082.58	24.5
1083.7	23.5
1084.82	25
1085.94	23
1087.06	26
1088.18	25
1089.29	21.5
1090.41	24
1091.53	21.5
1092.65	27.5
1093.77	23.5
1094.88	21.5
1096	25
1097.12	24
1098.23	21.5
1099.35	28
1100.47	26
1101.58	25
1102.7	28
1103.82	24.5
1104.93	23.5
1106.05	24
1107.16	26
1108.28	24
1109.39	22.5
1110.51	27
1111.62	29.5
1112.74	27.5
1113.85	21.5
1114.96	24
1116.08	27.5
1117.19	19
1118.31	25
1119.42	22
1120.53	26
1121.65	24.5
1122.76	27.5
1123.87	22
1124.98	24
1126.1	25.5
1127.21	27.5
1128.32	22
1129.43	23
1130.54	25
1131.65	24
1132.76	26
1133.88	23
1134.99	24.5
1136.1	24
1137.21	26.5
1138.32	28
1139.43	21
1140.54	27.5
1141.65	25.5
1142.76	26
1143.87	24
1144.98	28.5
1146.08	26.5
1147.19	25
1148.3	22
1149.41	24
1150.52	23
1151.63	22
1152.73	23
1153.84	25
1154.95	22
1156.06	26.5
1157.17	24
1158.27	29
1159.38	23.5
1160.49	24
1161.59	22
1162.7	26.5
1163.8	27
1164.91	25
1166.02	25.5
1167.12	24
1168.23	21
1169.33	22.5
1170.44	24
1171.54	22
1172.65	22
1173.75	23
1174.86	22.5
1175.96	22
1177.06	26
1178.17	19
1179.27	24
1180.37	25
1181.48	24
1182.58	23.5
1183.68	24
1184.79	25
1185.89	29
1186.99	23.5
1188.09	23
1189.2	23.5
1190.3	26.5
1191.4	17
1192.5	22
1193.6	22
1194.7	22.9923
1195.8	23.9854
1196.9	24.4851
1198.01	22.6436
1199.11	27.7952
1200.21	24.4127
1201.31	23.1229
1202.41	25.5141
1203.5	22.7668
1204.6	25.3231
1205.7	26.6045
1206.8	21.6265
1207.9	21.3662
1209	24.2345
1210.1	26.4731
1211.2	21.9937
1212.3	25.175
1213.39	23.5198
1214.49	22.633
1215.59	26.1939
1216.69	24.7453
1217.78	25.0495
1218.88	22.2618
1219.98	25.011
1221.08	24.2912
1222.17	22.8981
1223.27	23.5645
1224.37	26.7508
1225.46	22.7678
1226.56	24.7283
1227.65	21.4643
1228.75	22.7069
1229.84	22.5093
1230.94	24.7232
1232.03	22.8499
1233.13	24.8143
1234.22	25.4248
1235.32	22.834
1236.41	22.1214
1237.51	20.9136
1238.6	22.5808
1239.69	22.6056
1240.79	22.8252
1241.88	24.2873
1242.97	22.1405
1244.07	22.9539
1245.16	24.2567
1246.25	24.1407
1247.35	21.7723
1248.44	22.4416
1249.53	23.6481
1250.62	23.8348
1251.71	24.2041
1252.81	23.9971
1253.9	24.3382
1254.99	22.8372
1256.08	25.304
1257.17	23.0375
1258.26	24.1277
1259.35	21.8552
1260.44	20.6351
1261.53	23.9625
1262.62	23.2973
1263.71	22.6322
1264.8	23.5269
1265.89	24.7752
1266.98	23.1814
1268.07	24.6515
1269.16	24.4601
1270.25	24.0121
1271.34	25.4105
1272.43	23.8467
1273.52	22.691
1274.6	24.3847
1275.69	22.3322
1276.78	23.3521
1277.87	23.119
1278.95	21.6198
1280.04	23.2936
1281.13	24.7718
1282.22	23.8278
1283.3	23.8537
1284.39	20.3574
1285.48	22.0953
1286.56	20.8362
1287.65	25.3046
1288.73	23.7804
1289.82	21.1483
1290.91	23.4253
1291.99	22.7807
1293.08	23.816
1294.16	26.251
1295.24	25.2053
1296.33	22.2931
1297.41	20.5912
1298.5	22.0943
1299.58	22.8471
1300.67	25.6892
1301.75	24.3125
1302.83	23.1835
1303.92	22.2594
1305	23.4114
1306.08	23.2945
1306.4	23
1307.49	24.5
1308.58	20.5
1309.66	25
1310.75	21.5
1311.84	22
1312.93	20.5
1314.01	22.5
1315.1	24
1316.19	24.5
1317.27	24
1318.36	28
1319.45	25.5
1320.53	27.5
1321.62	19
1322.71	25
1323.79	25
1324.88	24.5
1325.96	23
1327.05	25
1328.13	22
1329.22	20
1330.3	23.5
1331.39	21.5
1332.47	22.5
1333.55	21.5
1334.64	21.5
1335.72	21.5
1336.81	24
1337.89	20.5
1338.97	29
1340.06	25.5
1341.14	26.5
1342.22	24
1343.3	22
1344.39	25
1345.47	20.5
1346.55	24
1347.63	23.5
1348.71	24.5
1349.8	23.5
1350.88	22.5
1351.96	23
1353.04	26
1354.12	24.5
1355.2	22
1356.28	25
1357.36	23.5
1358.44	26
1359.52	24.5
1360.6	25
1361.68	23
1362.76	22
1363.84	19.5
1364.92	27
1366	22
1367.08	24.5
1368.16	21
1369.23	24.5
1370.31	24
1371.39	24
1372.47	20
1373.55	25
1374.62	23
1375.7	24
1376.78	25.5
1377.86	23.5
1378.93	24
1380.01	28
1381.09	27
1382.16	26
1383.24	26.5
1384.32	22.5
1385.39	22
1386.47	21.5
1387.54	25
1388.62	21
1389.69	24
1390.77	25
1391.84	25
1392.92	23.5
1393.99	22
1395.07	26
1396.14	21
1397.21	24
1398.29	20
1399.36	28.5
1400.44	24.5
1401.51	24.5
1402.58	25.5
1403.66	22.5
1404.73	24
1405.8	27
1406.87	24
1407.95	24.5
1409.02	22.5
1410.09	28
1411.16	26.5
1412.23	23
1413.3	29.5
1414.38	23.5
1415.45	25
1416.52	25
1417.59	27.5
1418.66	23
1419.73	22.5
1420.8	23.5
1421.87	23.5
1422.94	24.5
1424.01	25.5
1425.08	23.5
1426.15	22
1427.22	23
1428.29	20.5
1429.36	24
1430.43	26.5
1431.49	24
1432.56	24.5
1433.63	27
1434.7	23.5
1435.77	22
1436.83	27
1437.9	24
1438.97	21.5
1440.04	22
1441.1	26
1442.17	25
1443.24	27
1444.3	24
1445.37	24.5
1446.44	22.5
1447.5	26
1448.57	24
1449.63	23.5
1450.7	22.5
1451.77	23.5
1452.83	26.5
1453.9	24
1454.96	26
1456.03	23
1457.09	24.5
1458.15	24.5
1459.22	22.5
1460.28	24
1461.35	27
1462.41	23
1463.47	23
1464.54	23.5
1465.6	25.5
1466.66	24.5
1467.73	25.5
1468.79	22
1469.85	21.5
1470.91	24.5
1471.98	24.5
1473.04	22
1474.1	25.5
1475.16	26
1476.22	20.5
1477.28	27
1478.35	24
1479.41	24.5
1480.47	25
1481.53	24.5
1482.59	21.5
1483.65	22.5
1484.71	25
1485.77	28
1486.83	24
1487.89	25.5
1488.95	19
1490.01	24
1491.07	25.5
1492.13	26
1493.18	21.5
1494.24	25
1495.3	26
1496.36	25.5
1497.42	24
1498.48	24.5
1499.53	28
1500.59	24
1501.65	23
1502.71	25.5
1503.76	23
1504.82	24.5
1505.88	22.5
1506.93	23
1507.99	23
1509.05	24
1510.1	23
1511.16	24
1512.21	26
1513.27	24
1514.33	25
1515.38	27
1516.44	28.5
1517.49	25
1518.55	26
1519.6	23
1520.66	24
1521.71	27
1522.76	24.5
1523.82	23
1524.87	26
1525.93	24.5
1526.98	26
1528.03	22.5
1529.08	24.5
1530.14	22.5
1531.19	27
1532.24	25.5
1533.3	25
1534.35	23
1535.4	25
1536.45	27.5
1537.5	24.5
1538.56	23.5
1539.61	23.5
1540.66	23.5
1541.71	29
1542.76	19
1543.81	23.5
1544.86	25.5
1545.91	23.5
1546.96	24
1548.01	24
1549.06	25
1550.11	27.5
1551.16	22.5
1552.21	28.5
1553.26	24.5
1554.31	22
1555.36	27.5
1556.41	26.5
1557.46	23
1558.51	26
1559.56	25.5
1560.6	26
1561.65	28
1562.7	26
1563.75	25.5
1564.79	21.5
1565.84	25
1566.89	24
1567.94	26.5
1568.98	23
1570.03	22.5
1571.08	26
1572.12	22.5
1573.17	22
1574.22	21
1575.26	22
1576.31	24.5
1577.35	28
1578.4	25
1579.44	24
1580.49	28
1581.53	25.5
1582.58	22
1583.62	25
1584.67	25.5
1585.71	24
1586.76	26.5
1587.8	25.5
1588.84	25
1589.89	22
1590.93	27
1591.97	23
1593.02	23.5
1594.06	24.5
1595.1	23.5
1596.14	25.5
1597.19	20.5
1598.23	27.5
1599.27	21.5
1600.31	24
1601.36	27
1602.4	25
1603.44	27
1604.48	24
1605.52	25
1606.56	24
1607.6	27.5
1608.64	26
1609.68	26.5
1610.72	24.5
1611.76	24.5
1612.81	29.5
1613.84	27.5
1614.88	26
1615.92	25.5
1616.96	26
1618	18.5
1619.04	25.5
1620.08	24
1621.12	22.5
1622.16	26
1623.2	21
1624.23	23
1625.27	24
1626.31	21
1627.35	23
1628.39	24.5
1629.42	25.5
1630.46	26.5
1631.5	24
1632.53	24
1633.57	21.5
1634.61	26.5
1635.64	25.5
1636.68	26
1637.72	24.5
1638.75	24
1639.79	26
1640.82	19
1641.86	27.5
1642.89	25
1643.93	26.5
1644.96	24.5
1646	24
1647.03	27
1648.07	26
1649.1	26
1650.14	27.5
1651.17	24.5
1652.21	21.5
1653.24	25.5
1654.27	24.5
1655.31	21
1656.34	23.5
1657.37	23
1658.41	24
1659.44	26
1660.47	25
1661.5	27
1662.53	24
1663.57	25
1664.6	23.5
1665.63	22.5
1666.66	29
1667.69	24
1668.72	25
1669.76	24.5
1670.79	22.5
1671.82	22.5
1672.85	25
1673.88	23.5
1674.91	27
1675.94	31.5
1676.97	22.5
1678	21.5
1679.03	26
1680.06	24.5
1681.09	24
1682.12	26
1683.15	22.5
1684.17	25.5
1685.2	25.5
1686.23	26.5
1687.26	23
1688.29	25.5
1689.32	23.5
1690.34	25
1691.37	24
1692.4	29
1693.43	29
1694.45	29
1695.48	26
1696.51	28.5
1697.54	22
1698.56	23
1699.59	23
1700.61	24
1701.64	24
1702.67	25.5
1703.69	25
1704.72	23.5
1705.74	24.5
1706.77	17
1707.79	24.5
1708.82	24.5
1709.84	23
1710.87	28
1711.89	23
1712.92	22
1713.94	24.5
1714.97	25.5
1715.99	26
1717.01	27
1718.04	24
1719.06	24.5
1720.08	24.5
1721.11	24
1722.13	26.5
1723.15	28.5
1724.18	20.5
1725.2	27
1726.22	24
1727.24	27
1728.26	25
1729.29	25
1730.31	29
1731.33	27
1732.35	23
1733.37	26
1734.39	27
1735.41	23
1736.43	21
1737.45	26
1738.47	22.5
1739.5	25
1740.52	26
1741.53	25.5
1742.55	25.5
1743.57	25
1744.59	23
1745.61	26
1746.63	27
1747.65	24
1748.67	24
1749.69	21.5
1750.71	23.5
1751.72	21
1752.74	22
1753.76	23
1754.78	28
1755.8	26
1756.81	28
1757.83	28
1758.85	24.5
1759.87	27
1760.88	28.5
1761.9	23
1762.92	22.5
1763.93	26.5
1764.95	24
1765.96	24.5
1766.98	28
1768	25.5
1769.01	26
1770.03	27.5
1771.04	23
1772.06	27
1773.07	28
1774.09	28
1775.1	22.5
1776.12	26.5
1777.13	24.5
1778.15	23
1779.16	24
1780.17	28
1781.19	25
1782.2	26
1783.21	21.5
1784.23	26
1785.24	24.5
1786.25	23.5
1787.27	26
1788.28	23
1789.29	24.5
1790.3	24.5
1791.32	23.5
1792.33	26.5
1793.34	25
1794.35	25.5
1795.36	26
1796.38	25.5
1797.39	20.5
1798.4	24
1799.41	23
1800.42	23.5
1801.43	27.5
1802.44	23
1803.45	25
1804.46	24
1805.47	25.5
1806.48	25.5
1807.49	22.5
1808.5	22.5
1809.51	24
1810.52	25.5
1811.53	25.5
1812.53	28
1813.54	22
1814.55	23
1815.56	25
1816.57	26.5
1817.58	24
1818.59	20.5
1819.59	22
1820.6	22.5
1821.61	27.5
1822.62	24.5
1823.62	25
1824.63	20
1825.64	21.5
1826.64	26.5
1827.65	23
1828.66	25.5
1829.66	23
1830.67	24.5
1831.67	20.5
1832.68	22.5
1833.69	21
1834.69	28
1835.7	22.5
1836.7	24.5
1837.71	23
1838.71	25.5
1839.72	22
1840.72	28.5
1841.72	23
1842.73	21
1843.73	23
1844.74	25.5
1845.74	24
1846.74	22
1847.75	25.5
1848.75	25
1849.75	25
1850.76	21
1851.76	29.5
1852.76	27
1853.76	23
1854.77	26
1855.77	26.5
1856.77	23.5
1857.77	27.5
1858.78	26.5
1859.78	24.5
1860.78	22
1861.78	26.5
1862.78	26.5
1863.78	23.5
1864.78	26
1865.78	26.5
1866.78	27.5
1867.78	26
1868.78	22
1869.78	23
1870.78	28
1871.78	22
1872.78	24.5
1873.78	23
1874.78	24.5
1875.78	24
1876.78	22
1877.78	20
1878.78	24
1879.78	26
1880.77	26
1881.77	23
1882.77	27
1883.77	28
1884.77	25
1885.76	23
1886.76	28
1887.76	25
1888.75	25
1889.75	22.5
1890.75	24
1891.74	24.5
1892.74	23.5
1893.74	25
1894.73	24
1895.73	26.5
1896.73	23.5
1897.72	25
1898.72	26
1899.71	23.5
1900.71	26.5
1901.7	28.5
1902.7	20
1903.69	25
1904.69	28.5
1905.68	23.5
1906.68	25.5
1907.67	24.5
1908.66	22.5
1909.66	24
1910.65	24.5
1911.64	22
1912.64	25.5
1913.63	20.5
1914.62	22
1915.62	24
1916.61	24
1917.6	21
1918.6	26.5
1919.59	22
1920.58	20.5
1921.57	24.5
1922.56	25
1923.55	20
1924.55	25.5
1925.54	25
1926.53	22.5
1927.52	25.5
1928.51	21.5
1929.5	23.5
1930.49	22.5
1931.48	22.5
1932.47	22
1933.46	23.5
1934.45	25
1935.44	28
1936.43	24.5
1937.42	22.5
1938.41	23.5
1939.4	21
1940.39	25.5
1941.38	21.5
1942.37	24
1943.36	26.5
1944.35	25
1945.33	23
1946.32	20
1947.31	20.5
1948.3	21.25
1949.29	20
1950.27	23
1951.26	22
1952.25	26
1953.24	22
1954.22	25
1955.21	24
1956.2	21.5
1957.18	24
1958.17	26.5
1959.16	25.5
1960.14	22.5
1961.13	24.5
1962.11	25.5
1963.1	24
1964.08	23.5
1965.07	25
1966.05	22.5
1967.04	19.5
1968.02	26.5
1969.01	27.5
1969.99	28
1970.98	23.5
1971.96	21
1972.95	25
1973.93	22.5
1974.91	23.5
1975.9	27.5
1976.88	24
1977.86	23.5
1978.85	24
1979.83	24.5
1980.81	29
1981.8	24
1982.78	22.5
1983.76	30
1984.74	24
1985.73	26
1986.71	20.5
1987.69	26.5
1988.67	22.5
1989.65	26.5
1990.63	22
1991.62	23.5
1992.6	24
1993.58	25
1994.56	23
1995.54	24.5
1996.52	24
1997.5	27
1998.48	27.5
1999.46	19
2000.44	23
2001.42	28.5
2002.4	24.5
2003.38	25.5
2004.36	24.5
2005.34	23
2006.32	22
2007.29	24.5
2008.27	24
2009.25	23.5
2010.23	24
2011.21	23
2012.19	26
2013.17	25
2014.14	25
2015.12	23
2016.1	21
2017.07	24.5
2018.05	24
2019.03	25
2020.01	25.5
2020.98	21.5
2021.96	24.5
2022.94	23
2023.91	21
2024.89	25.5
2025.86	24
2026.84	21
2027.82	27
2028.79	22.5
2029.77	25
2030.74	24.5
2031.72	24
2032.69	24
2033.67	19.5
2034.64	25.5
2035.62	24
2036.59	27
2037.56	25
2038.54	23.5
2039.51	25
2040.49	21
2041.46	21
2042.43	21.5
2043.41	23
2044.38	24
2045.35	20
2046.32	22
2047.3	25
2048.27	19
2049.24	24
2050.21	23
2051.19	22
2052.16	25
2053.13	20.5
2054.1	23
2055.07	23.5
2056.05	21
2057.02	25.5
2057.99	26
2058.96	23
2059.93	28
2060.9	23
2061.87	23
2062.84	24
2063.81	21
2064.78	27
2065.75	24.5
2066.72	23.5
2067.69	24
2068.66	24.5
2069.63	22
2070.6	27
2071.57	23
2072.54	21
2073.5	23.5
2074.47	25.5
2075.44	25
2076.41	24.5
2077.38	23.5
2078.35	23.5
2079.31	20
2080.28	26
2081.25	21
2082.22	22
2083.18	26
2084.15	25.5
2085.12	21
2086.08	24
2087.05	22.5
2088.02	20
2088.98	20
2089.95	26
2090.92	24
2091.88	19
2092.85	21.5
2093.81	24
2094.78	22
2095.74	23
2096.71	25
2097.67	21.5
2098.64	21.5
2099.6	23.5
2100.57	26.5
2101.53	24.5
2102.5	22.5
2103.46	23.5
2104.42	25.5
2105.39	19
2106.35	21.5
2107.32	27
2108.28	20
2109.24	24
2110.21	26
2111.17	20.5
2112.13	21.5
2113.09	20
2114.06	23.5
2115.02	26.5
2115.98	25
2116.94	27.5
2117.91	23
2118.87	23
2119.83	23
2120.79	26
2121.75	21.5
2122.71	23
2123.67	23.5
2124.63	22
2125.6	23.5
2126.56	24
2127.52	25
2128.48	23
2129.44	24.5
2130.4	25
2131.36	25
2132.32	22.5
2133.28	25
2134.23	23
2135.19	22.5
2136.15	25
2137.11	22.5
2138.07	24
2139.03	18
2139.99	22.5
2140.95	23
2141.9	22
2142.86	19.5045
2143.82	21.0193
2144.78	22.0542
2145.74	17.7084
2146.69	22.0308
2147.65	19.5073
2148.61	20.1261
2149.57	22.992
2150.52	20.9803
2151.48	20.9725
2152.44	23.0585
2153.39	24.9681
2154.35	18.4854
2155.31	23.7379
2156.26	22.8003
2157.22	21.7297
2158.17	21.792
2159.13	21.9574
2160.08	19.9165
2161.04	21.9212
2161.99	23.301
2162.95	22.4279
2163.91	21.7093
2164.86	24.2202
2165.81	22.038
2166.77	25.2192
2167.72	24.542
2168.68	21.0385
2169.63	21.6303
2170.58	23.784
2171.54	21.9622
2172.49	23.139
2173.45	24.4787
2174.4	20.8927
2175.35	23.1497
2176.31	20.2329
2177.26	22.3479
2178.21	24.8737
2179.16	21.5542
2180.12	19.3123
2181.07	24.7778
2182.02	20.3204
2182.97	23.1748
2183.92	22.5512
2184.88	22.6914
2185.83	22.71
2186.78	21.2418
2187.73	22.3737
2188.68	21.1189
2189.63	21.1183
2190.58	20.5319
2191.53	20.9627
2192.49	20.4764
2193.43	19.9722
2194.39	22.1725
2195.34	20.8851
2196.28	21.7678
2197.24	23.6573
2198.19	21.1198
2199.13	21.8063
2200.08	21.9538
2201.03	21.4632
2201.98	23.42
2202.93	20.1116
2203.88	21.8671
2204.83	22.4381
2205.78	21.9755
2206.73	22.7062
2207.67	24.1737
2208.62	21.5175
2209.57	24.266
2210.52	20.3376
2211.47	24.8794
2212.41	20.4396
2213.36	19.6236
2214.31	21.5711
2215.26	22.2968
2216.2	22.4577
2217.15	24.2807
2218.1	22.6671
2219.04	20.0549
2219.99	20.3125
2220.93	24.2995
2221.88	21.1217
2222.83	20.5675
2223.77	22.2678
2224.72	21.2327
2225.66	23.3497
2226.61	23.7184
2227.55	24.7176
2228.5	21.0292
2229.44	22.59
2230.39	22.4836
2231.33	19.8555
2232.28	21.766
2233.22	23.75
2234.17	20.7588
2235.11	21.59
2236.06	22.1092
2237	25.0236
2237.94	23.3164
2238.89	20.637
2239.83	20.7546
2240.06	21
2241.01	24.5
2241.96	22.5
2242.9	24.5
2243.85	20
2244.8	23
2245.75	23
2246.69	19
2247.64	24.5
2248.59	20.5
2249.53	23
2250.48	25
2251.43	24
2252.37	22
2253.32	24.5
2254.27	21.5
2255.21	22
2256.16	20
2257.1	21
2258.05	20
2259	21.5
2259.94	23.5
2260.89	24
2261.83	21
2262.78	23
2263.72	21.5
2264.67	23
2265.61	23.5
2266.56	21
2267.5	19.5
2268.44	24
2269.39	25
2270.33	24.5
2271.27	24.5
2272.22	25
2273.16	22.5
2274.1	22
2275.05	23
2275.99	23.5
2276.93	19
2277.88	23
2278.82	22
2279.76	22
2280.7	19.5
2281.65	24.5
2282.59	25
2283.53	25
2284.47	24
2285.41	24
2286.35	22
2287.29	23
2288.24	24.5
2289.18	23.5
2290.12	24.5
2291.06	26
2292	21
2292.94	22
2293.88	22
2294.82	23.5
2295.76	20
2296.7	22.5
2297.64	23.5
2298.58	21
2299.52	24
2300.46	22.5
2301.4	22
2302.34	22.5
2303.28	25
2304.21	23
2305.15	22
2306.09	24.5
2307.03	25.5
2307.97	25.5
2308.91	24
2309.84	24
2310.78	22.5
2311.72	24.5
2312.66	26
2313.59	24.5
2314.53	21
2315.47	23.5
2316.4	22
2317.34	24
2318.28	23
2319.22	19
2320.15	23
2321.09	25
2322.02	26
2322.96	20
2323.89	24.5
2324.83	21.5
2325.77	25.5
2326.7	24
2327.64	24
2328.57	22.5
2329.51	21
2330.44	22
2331.38	26.5
2332.31	23
2333.25	24
2334.18	27.5
2335.11	22.5
2336.05	24
2336.98	23.5
2337.92	21
2338.85	25.5
2339.78	23
2340.72	24.5
2341.65	22
2342.58	22
2343.52	25.5
2344.45	17
2345.38	24
2346.31	24.5
2347.25	23
2348.18	22.5
2349.11	21
2350.04	20
2350.97	22.5
2351.9	22
2352.84	22.5
2353.77	23.5
2354.7	26.5
2355.63	21.5
2356.56	23.5
2357.49	22
2358.42	24.5
2359.35	22
2360.28	25.5
2361.21	23
2362.14	20.5
2363.07	24.5
2364	25
2364.93	23.5
2365.86	21
2366.79	25
2367.72	20
2368.65	27
2369.58	26.5
2370.51	20
2371.44	21.5
2372.36	19.5
2373.29	22.5
2374.22	22.5
2375.15	24.5
2376.08	23.5
2377.01	24
2377.93	25.5
2378.86	26
2379.79	23
2380.72	22
2381.64	24.5
2382.57	24
2383.5	22.5
2384.42	25
2385.35	22
2386.28	28.5
2387.2	27.5
2388.13	22
2389.06	24.5
2389.98	25
2390.91	22.5
2391.83	24.5
2392.76	23.5
2393.69	25
2394.61	24.5
2395.54	22.5
2396.46	23
2397.39	21.5
2398.31	23.5
2399.23	21.5
2400.16	24
2401.08	21.5
2402.01	26
2402.93	24
2403.86	24
2404.78	24.5
2405.7	22.5
2406.63	26
2407.55	23.5
2408.47	23
2409.4	24
2410.32	20
2411.24	21.5
2412.17	25
2413.09	21
2414.01	25.5
2414.93	28.5
2415.85	25
2416.78	24
2417.7	19.5
2418.62	24.5
2419.54	24
2420.46	23
2421.38	24
2422.31	21.5
2423.23	25
2424.15	23.5
2425.07	23
2425.99	22.5
2426.91	24.5
2427.83	18.5
2428.75	23
2429.67	25
2430.59	25.5
2431.51	24
2432.43	22
2433.35	26
2434.27	22
2435.19	24.5
2436.11	26
2437.03	22
2437.94	22.5
2438.86	23
2439.78	27
2440.7	27
2441.62	22.5
2442.54	26
2443.46	25.5
2444.37	22
2445.29	23
2446.21	18.5
2447.13	24
2448.04	26
2448.96	24.5
2449.88	22
2450.8	26.5
2451.71	25
2452.63	20
2453.55	24.5
2454.46	22.5
2455.38	20.5
2456.29	24
2457.21	24
2458.13	18.5
2459.04	25
2459.96	23
2460.87	26.5
2461.79	21
2462.7	26
2463.62	20
2464.53	27.5
2465.45	23.5
2466.36	18.5
2467.28	26
2468.19	25.5
2469.11	23
2470.02	22
2470.93	24
2471.85	23.5
2472.76	23
2473.67	22.5
2474.59	25
2475.5	25.5
2476.42	22.5
2477.33	29
2478.24	23
2479.15	24
2480.07	25
2480.98	19.5
2481.89	28
2482.8	22.5
2483.72	26.5
2484.63	25
2485.54	26
2486.45	26
2487.36	21
2488.27	21.5
2489.19	22.5
2490.1	22
2491.01	25.5
2491.92	25
2492.83	25.5
2493.74	21
2494.65	24
2495.56	20
2496.47	27
2497.38	21
2498.29	24
2499.2	26
2500.11	26
2501.02	25
2501.93	24
2502.84	24.5
2503.75	20.5
2504.66	24
2505.57	26.5
2506.47	26
2507.38	25
2508.29	24
2509.2	25
2510.11	22.5
2511.02	22.5
2511.92	22
2512.83	26
2513.74	24
2514.65	24.5
2515.55	20
2516.46	24
2517.37	21
2518.28	24
2519.18	24
2520.09	20
2521	27
2521.9	23.5
2522.81	20
2523.72	25
2524.62	26
2525.53	23
2526.43	22
2527.34	25.5
2528.24	24
2529.15	24.5
2530.06	24
2530.96	27.5
2531.87	21.5
2532.77	22.5
2533.68	25.5
2534.58	25.5
2535.48	21
2536.39	21
2537.29	25.5
2538.2	25
2539.1	27
2540	24
2540.91	25
2541.81	23
2542.72	25
2543.62	23.5
2544.52	27
2545.42	20.5
2546.33	22.5
2547.23	23
2548.13	21
2549.04	22.5
2549.94	24
2550.84	21.5
2551.74	26
2552.64	25.5
2553.55	22
2554.45	26.5
2555.35	21
2556.25	21.5
2557.15	22.5
2558.05	22
2558.95	22
2559.85	22
2560.76	27
2561.66	23
2562.56	26.5
2563.46	22.5
2564.36	23
2565.26	20
2566.16	25
2567.06	23.5
2567.96	29.5
2568.86	21
2569.76	24.5
2570.66	25.5
2571.55	23
2572.45	26
2573.35	24
2574.25	24.5
2575.15	24.5
2576.05	25.5
2576.95	25.5
2577.84	23
2578.74	22.5
2579.64	22
2580.54	21.5
2581.44	23.5
2582.33	25.5
2583.23	25.5
2584.13	23
2585.03	25
2585.92	23
2586.82	21.5
2587.72	18.5
2588.61	23
2589.51	22.5
2590.41	23
2591.3	22.5
2592.2	23.5
2593.09	22
2593.99	26
2594.89	18
2595.78	22.5
2596.68	22
2597.57	25.5
2598.47	26.5
2599.36	20.5
2600.26	24
2601.15	23.5
2602.05	23
2602.94	23.5
2603.84	20.5
2604.73	26
2605.63	27
2606.52	21
2607.41	21.5
2608.31	23
2609.2	24.5
2610.09	28.5
2610.99	22.5
2611.88	25
2612.77	21
2613.67	25.5
2614.56	23
2615.45	26.5
2616.35	20
2617.24	24
2618.13	23.5
2619.02	28.5
2619.91	24
2620.81	24
2621.7	23.5
2622.59	20
2623.48	25
2624.37	23.5
2625.26	24
2626.15	22
2627.05	23.5
2627.94	23.5
2628.83	26
2629.72	26
2630.61	23.5
2631.5	29.5
2632.39	28
2633.28	25.5
2634.17	22
2635.06	27
2635.95	26.5
2636.84	26.5
2637.73	24.5
2638.62	25
2639.51	20
2640.4	22.5
2641.28	23.5
2642.17	22
2643.06	25
2643.95	24
2644.84	24
2645.73	21
2646.62	25
2647.5	26.5
2648.39	25
2649.28	25
2650.17	23
2651.05	23
2651.94	21.5
2652.83	20
2653.72	26
2654.6	27.5
2655.49	21
2656.38	23
2657.26	23.5
2658.15	23
2659.04	24.5
2659.92	24
2660.81	24.5
2661.69	22
2662.58	24
2663.47	24.5
2664.35	25
2665.24	26.5
2666.12	27.5
2667.01	28.5
2667.89	21.5
2668.78	24.5
2669.66	24
2670.55	25.5
2671.43	24
2672.32	20
2673.2	24.5
2674.08	20.5
2674.97	22.5
2675.85	25
2676.74	19
2677.62	22.5
2678.5	26
2679.39	25
2680.27	26.5
2681.15	25
2682.04	24
2682.92	26.5
2683.8	22.5
2684.68	26
2685.57	30
2686.45	23.5
2687.33	23.5
2688.21	22
2689.09	25.5
2689.98	23
2690.86	23
2691.74	25
2692.62	24
2693.5	23
2694.38	23.5
2695.27	24.5
2696.15	22.5
2697.03	23
2697.91	21.5
2698.79	22.5
2699.67	21.5
2700.55	23
2701.43	23.5
2702.31	27
2703.19	24
2704.07	22
2704.95	25
2705.83	21
2706.71	25.5
2707.59	21
2708.47	24.5
2709.34	24.5
2710.22	24
2711.1	24
2711.98	24.5
2712.86	21.5
2713.74	25
2714.62	21
2715.49	24
2716.37	23.5
2717.25	24
2718.13	21.5
2719.01	26
2719.88	25.5
2720.76	23
2721.64	23.5
2722.51	27
2723.39	23
2724.27	23
2725.14	23
2726.02	22
2726.9	28
2727.77	27
2728.65	27
2729.53	23
2730.4	26.5
2731.28	21.5
2732.15	25.5
2733.03	25.5
2733.91	24
2734.78	26.5
2735.66	21.5
2736.53	27
2737.41	26.5
2738.28	24.5
2739.16	27
2740.03	24.5
2740.9	26
2741.78	22.5
2742.65	24.5
2743.53	26.5
2744.4	21.5
2745.27	23
2746.15	24.5
2747.02	25
2747.89	24.5
2748.77	25
2749.64	25
2750.51	25
2751.39	22
2752.26	24
2753.13	22
2754.01	24
2754.88	24.5
2755.75	25.5
2756.62	24
2757.49	23
2758.37	26.5
2759.24	21
2760.11	22.5
2760.98	23
2761.85	22.5
2762.72	22
2763.59	26
2764.46	26
2765.34	28.5
2766.21	20.5
2767.08	27
2767.95	25.5
2768.82	20
2769.69	23.5
2770.56	24
2771.43	25
2772.3	27
2773.17	24.5
2774.04	21
2774.91	25
2775.78	20
2776.65	20.5
2777.51	23.5
2778.38	26
2779.25	24.5
2780.12	26
2780.99	23.5
2781.86	26.5
2782.73	22.5
2783.59	24
2784.46	24
2785.33	27
2786.2	21.5
2787.07	22
2787.93	23
2788.8	24
2789.67	24
2790.54	25.5
2791.4	22.5
2792.27	23
2793.14	23.5
2794	24
2794.87	24
2795.74	23.5
2796.6	22.5
2797.47	28
2798.34	22
2799.2	24
2800.07	23.5
2800.93	24
2801.8	22.5
2802.66	22.5
2803.53	24
2804.39	25.5
2805.26	24
2806.12	26
2806.99	25.5
2807.85	25.5
2808.72	22
2809.58	23
2810.45	27.5
2811.31	25
2812.18	24
2813.04	25
2813.9	26
2814.77	25.5
2815.63	26
2816.49	23
2817.36	26.5
2818.22	27.5
2819.08	24.5
2819.95	22.5
2820.81	24
2821.67	23
2822.53	25
2823.4	22.5
2824.26	24
2825.12	27
2825.98	23
2826.84	23.5
2827.71	27.5
2828.57	23
2829.43	22
2830.29	19.5
2831.15	24
2832.01	25
2832.88	22
2833.74	27
2834.6	22
2835.46	22.5
2836.32	27.5
2837.18	25.5
2838.04	23
2838.9	27
2839.76	28
2840.62	23
2841.48	23.5
2842.34	22
2843.2	23.5
2844.06	25
2844.92	23.5
2845.78	23
2846.63	26
2847.49	24
2848.35	22.5
2849.21	24
2850.07	21.5
2850.93	28.5
2851.79	25.5
2852.64	24
2853.5	23
2854.36	20
2855.22	25.5
2856.08	27.5
2856.93	23
2857.79	29
2858.65	24.5
2859.51	28
2860.36	20
2861.22	22
2862.08	27
2862.93	22
2863.79	22
2864.65	26.5
2865.5	18
2866.36	26
2867.22	25.5
2868.07	27.5
2868.93	23
2869.78	25
2870.64	23.5
2871.49	22.5
2872.35	26.5
2873.21	21
2874.06	23.5
2874.91	21.5
2875.77	18.5
2876.62	25
2877.48	27
2878.33	24
2879.19	21.5
2880.04	25
2880.9	27
2881.75	23.5
2882.6	26
2883.46	27
2884.31	27.5
2885.17	27.5
2886.02	29.5
2886.87	25
2887.73	24.5
2888.58	28
2889.43	26.5
2890.28	25
2891.14	28.5
2891.99	26.5
2892.84	28
2893.69	28.5
2894.55	30
2895.4	26
2896.25	26
2897.1	28
2897.95	32
2898.8	28.5
2899.66	29
2900.51	39.5
2901.36	36.5
2902.21	34.5
2903.06	37.5
2903.91	41
2904.76	37
2905.61	35
2906.46	35.5
2907.31	35
2908.16	35
2909.01	33
2909.86	34
2910.71	33
2911.56	32
2912.41	31
2913.26	33
2914.11	30.5
2914.96	29
2915.81	31.5
2916.66	27.5
2917.51	25
2918.36	29.5
2919.2	24
2920.05	28
2920.9	28.5
2921.75	24
2922.6	24
2923.45	24.5
2924.29	24
2925.14	26.5
2925.99	26.5
2926.84	22
2927.68	26
2928.53	22
2929.38	25
2930.23	21
2931.07	23.5
2931.92	22
2932.77	22.5
2933.61	23
2934.46	25.5
2935.3	25
2936.15	24
2937	22.5
2937.84	22
2938.69	23
2939.53	25.5
2940.38	24
2941.23	22.5
2942.07	25.5
2942.92	25
2943.76	24
2944.61	25.5
2945.45	26
2946.3	21
2947.14	24
2947.98	25
2948.83	23
2949.67	24
2950.52	25
2951.36	28
2952.2	23.5
2953.05	25
2953.89	27
2954.74	29
2955.58	25.5
2956.42	26
2957.27	24
2958.11	23.5
2958.95	27.5
2959.79	26
2960.64	27
2961.48	31
2962.32	26
2963.16	26
2964.01	24.5
2964.85	29.5
2965.69	26.5
2966.53	27.5
2967.37	26
2968.21	26
2969.06	28
2969.9	27
2970.74	29
2971.58	26.9782
2972.42	25.929
2973.26	26.034
2974.1	24.9939
2974.94	24.0021
2975.78	27.4571
2976.62	24.6859
2977.46	26.153
2978.3	26.4684
2979.14	23.6368
2979.98	19.3241
2980.82	23.9864
2981.66	25.7866
2982.5	23.4164
2983.34	24.088
2984.18	24.7456
2985.02	20.8846
2985.86	24.3188
2986.7	22.3106
2987.54	21.9273
2988.38	23.729
2989.21	23.3662
2990.05	21.6221
2990.89	24.3185
2991.73	23.3826
2992.57	24.0918
2993.41	25.7455
2994.24	25.7646
2995.08	21.7631
2995.92	23.3732
2996.76	23.2275
2997.59	22.7429
2998.43	21.4231
2999.27	23.1051
3000.1	23.325
3000.94	21.6336
3001.78	22.8031
3002.61	21.1383
3003.45	20.9962
3004.29	21.1377
3005.12	19.8427
3005.96	22.1267
3006.8	21.9033
3007.63	23.0082
3008.47	24.8033
3009.3	22.5086
3010.14	20.9228
3010.97	20.8447
3011.81	23.2133
3012.64	24.2569
3013.48	22.3152
3014.31	23.0865
3015.15	21.2691
3015.98	22.65
3016.82	21.6048
3017.65	23.8437
3018.49	23.5379
3019.32	22.7214
3020.16	20.3107
3020.99	21.8184
3021.82	20.5528
3022.66	21.0912
3023.49	21.4253
3024.32	22.4381
3025.16	20.6566
3025.99	20.9584
3026.82	21.9803
3027.66	21.9594
3028.49	21.8398
3029.32	20.1135
3030.16	22.2491
3030.99	22.1434
3031.82	22.2542
3032.65	22.0228
3033.49	23.2018
3034.32	22.8343
3035.15	23.8431
3035.98	21.4507
3036.81	21.6182
3037.64	21.4959
3038.48	20.0489
3039.31	19.806
3040.14	20.3895
3040.97	20.7048
3041.8	21.183
3042.63	21.5096
3043.46	22.5048
3044.29	23.1546
3045.12	23.8697
3045.95	22.7986
3046.78	22.3128
3047.61	23.6418
3048.44	21.9282
3049.27	21.9505
3050.1	21.0548
3050.93	21.8363
3051.76	23.3738
3052.59	22.5166
3053.42	21.5443
3054.25	23.1019
3055.08	22.6103
3055.91	22.0146
3056.74	21.4336
3057.26	20.5
3058.09	24.5
3058.92	24.5
3059.76	21
3060.59	22.5
3061.42	21
3062.26	21.5
3063.09	20.5
3063.92	20.5
3064.75	21
3065.59	22
3066.42	22.5
3067.25	24
3068.08	22.5
3068.91	22
3069.74	23
3070.58	21.5
3071.41	19
3072.24	27.5
3073.07	22
3073.9	21.5
3074.73	22
3075.56	22.5
3076.39	25
3077.22	24.5
3078.05	23.5
3078.88	22
3079.71	22
3080.55	25.5
3081.38	22.5
3082.2	26
3083.03	26
3083.86	20.5
3084.69	25
3085.52	22
3086.35	20
3087.18	23.5
3088.01	24.5
3088.84	17
3089.67	19.5
3090.5	22
3091.33	20
3092.15	20.5
3092.98	19
3093.81	25
3094.64	20
3095.47	19
3096.29	24
3097.12	20.5
3097.95	20.5
3098.78	23
3099.6	24.5
3100.43	21
3101.26	21.5
3102.09	22
3102.91	22
3103.74	21.5
3104.57	23
3105.39	24
3106.22	21.5
3107.05	23
3107.87	22
3108.7	22.5
3109.52	22
3110.35	25
3111.18	21
3112	21
3112.83	19.5
3113.65	18
3114.48	23
3115.3	18.5
3116.13	25
3116.95	22.5
3117.78	25.5
3118.6	23
3119.43	22.5
3120.25	23
3121.08	22
3121.9	24.5
3122.73	23.5
3123.55	17.5
3124.37	23
3125.2	23
3126.02	22
3126.84	19
3127.67	23.5
3128.49	23
3129.31	23
3130.14	20.5
3130.96	23
3131.78	26
3132.61	18
3133.43	25.5
3134.25	25
3135.07	24.5
3135.9	24
3136.72	23.5
3137.54	25
3138.36	23
3139.18	25.5
3140.01	29
3140.83	25
3141.65	22
3142.47	21
3143.29	24
3144.11	19
3144.93	23
3145.75	22
3146.58	17
3147.4	27
3148.22	24
3149.04	25.5
3149.86	23.5
3150.68	24
3151.5	24
3152.32	22.5
3153.14	21
3153.96	23
3154.78	25
3155.6	23
3156.42	20
3157.23	24
3158.05	21
3158.87	22.5
3159.69	25
3160.51	24.5
3161.33	23.5
3162.15	21
3162.97	20.5
3163.79	22
3164.6	23
3165.42	24.5
3166.24	25
3167.06	26
3167.88	23.5
3168.69	20
3169.51	23
3170.33	24.5
3171.15	22
3171.96	20
3172.78	26
3173.6	25.5
3174.41	23
3175.23	22
3176.05	25
3176.86	22.5
3177.68	25
3178.5	24.5
3179.31	26
3180.13	20
3180.95	21
3181.76	22
3182.58	23
3183.39	23
3184.21	24.5
3185.02	22
3185.84	24.5
3186.65	21
3187.47	22.5
3188.28	20
3189.1	23.5
3189.91	21.5
3190.73	22.5
3191.54	21
3192.36	23
3193.17	20.5
3193.99	23
3194.8	24
3195.61	21.5
3196.43	25
3197.24	26.5
3198.05	23.5
3198.87	22
3199.68	23
3200.49	23
3201.31	25
3202.12	22.5
3202.93	25.5
3203.75	21.5
3204.56	24
3205.37	28.5
3206.18	25
3207	23.5
3207.81	26.5
3208.62	24
3209.43	21.5
3210.24	21
3211.06	25
3211.87	22.5
3212.68	22
3213.49	26
3214.3	24.5
3215.11	26.5
3215.92	24
3216.74	21
3217.55	25
3218.36	23
3219.17	22
3219.98	21
3220.79	25.5
3221.6	21
3222.41	22.5
3223.22	22
3224.03	21.5
3224.84	23
3225.65	23.5
3226.46	19
3227.27	19.5
3228.08	22
3228.89	22
3229.7	22
3230.5	22.5
3231.31	23.5
3232.12	25
3232.93	22
3233.74	25
3234.55	27
3235.36	22.5
3236.16	23.5
3236.97	24.5
3237.78	23.5
3238.59	25
3239.4	24
3240.2	23
3241.01	21
3241.82	25
3242.63	20.5
3243.43	21.5
3244.24	22.5
3245.05	26.5
3245.86	24
3246.66	18.5
3247.47	26.5
3248.28	24.5
3249.08	26.5
3249.89	24
3250.69	22
3251.5	23.5
3252.31	24.5
3253.11	29
3253.92	20
3254.72	24
3255.53	22
3256.34	20.5
3257.14	26
3257.95	29
3258.75	24.5
3259.56	24.5
3260.36	20
3261.17	25.5
3261.97	24
3262.77	24
3263.58	22
3264.38	21
3265.19	28.5
3265.99	21
3266.8	26
3267.6	26
3268.4	21
3269.21	24
3270.01	21.5
3270.81	25.5
3271.62	23.5
3272.42	23.5
3273.22	21.5
3274.03	23.5
3274.83	23.5
3275.63	23.5
3276.43	25
3277.24	23
3278.04	24
3278.84	26
3279.64	22.5
3280.45	19
3281.25	25.5
3282.05	24
3282.85	24
3283.65	25.5
3284.46	25.5
3285.26	20
3286.06	23.5
3286.86	23
3287.66	25.5
3288.46	20
3289.26	21.5
3290.06	25
3290.86	23
3291.66	27
3292.46	24
3293.26	24.5
3294.06	24
3294.86	26
3295.66	26
3296.46	22.5
3297.26	25
3298.06	22
3298.86	23.5
3299.66	22
3300.46	25
3301.26	25.5
3302.06	23.5
3302.86	21
3303.66	23
3304.46	23
3305.26	26.5
3306.05	23
3306.85	26
3307.65	22
3308.45	24
3309.25	25
3310.04	24
3310.84	24.5
3311.64	22
3312.44	23.5
3313.24	24
3314.03	25
3314.83	27.5
3315.63	25
3316.42	23.5
3317.22	25
3318.02	24.5
3318.82	27.5
3319.61	22
3320.41	22
3321.2	23
3322	19.5
3322.8	24
3323.59	25.5
3324.39	25
3325.19	25.5
3325.98	24
3326.78	26.5
3327.57	24.5
3328.37	25
3329.16	23.5
3329.96	21.5
3330.75	22
3331.55	23.5
3332.34	22
3333.14	24
3333.93	29
3334.73	24.5
3335.52	26
3336.32	19
3337.11	24
3337.9	24
3338.7	20.5
3339.49	26.5
3340.29	23
3341.08	22.5
3341.87	20.5
3342.67	21.5
3343.46	25.5
3344.25	23.5
3345.05	24
3345.84	25
3346.63	24
3347.42	27
3348.22	24.5
3349.01	23
3349.8	26
3350.59	26
3351.39	24
3352.18	21
3352.97	25.5
3353.76	23
3354.55	23
3355.35	21
3356.14	22.5
3356.93	24
3357.72	24.5
3358.51	25.5
3359.3	26
3360.09	24.5
3360.88	25.5
3361.67	25
3362.47	26.5
3363.26	23
3364.05	26
3364.84	25.5
3365.63	23
3366.42	23
3367.21	22.5
3368	23
3368.79	24.5
3369.58	23.5
3370.37	18
3371.16	25
3371.95	21.5
3372.73	26.5
3373.52	23.5
3374.31	22
3375.1	23.5
3375.89	22
3376.68	24
3377.47	22
3378.26	24
3379.04	24
3379.83	22
3380.62	22
3381.41	21.5
3382.2	24
3382.98	21
3383.77	23.5
3384.56	25
3385.35	25
3386.14	17
3386.92	23.5
3387.71	23.5
3388.5	26.5
3389.28	25.5
3390.07	23
3390.86	20
3391.64	26.5
3392.43	23
3393.22	25
3394	26
3394.79	24.5
3395.58	20
3396.36	23
3397.15	22.5
3397.93	25.5
3398.72	25
3399.5	21
3400.29	23.5
3401.07	22.5
3401.86	26.5
3402.65	25
3403.43	24
3404.22	21.5
3405	24.5
3405.79	26.5
3406.57	24
3407.35	20.5
3408.14	20.5
3408.92	22.5
3409.71	24
3410.49	23
3411.27	23
3412.06	23
3412.84	30.5
3413.63	25
3414.41	20.5
3415.19	21
3415.98	24
3416.76	23.5
3417.54	23.5
3418.32	24.5
3419.11	21
3419.89	25
3420.67	24
3421.46	28
3422.24	24
3423.02	23
3423.8	23
3424.58	28
3425.37	26
3426.15	20.5
3426.93	24
3427.71	23.5
3428.49	26
3429.27	23
3430.06	24
3430.84	24
3431.62	24.5
3432.4	20.5
3433.18	20
3433.96	20.5
3434.74	24
3435.52	21
3436.3	22.5
3437.08	26
3437.86	26.5
3438.64	23.5
3439.42	24
3440.2	22
3440.98	25
3441.76	27
3442.54	21.5
3443.32	23
3444.1	23
3444.88	24
3445.66	21.5
3446.44	26
3447.22	23.5
3448	22.5
3448.78	24
3449.55	27.5
3450.33	24.5
3451.11	23.5
3451.89	20.5
3452.67	22.5
3453.45	21
3454.22	25.5
3455	22
3455.78	25.5
3456.56	22
3457.33	23
3458.11	19
3458.89	25
3459.67	21
3460.44	22.5
3461.22	21
3462	25
3462.77	22
3463.55	21.5
3464.33	23
3465.1	28
3465.88	25
3466.66	24
3467.43	25
3468.21	22
3468.99	21.5
3469.76	22
3470.54	22
3471.31	23
3472.09	22.5
3472.86	20
3473.64	22
3474.41	24.5
3475.19	23
3475.96	21.5
3476.74	22.5
3477.51	25.5
3478.29	23
3479.06	24.5
3479.84	21
3480.61	22
3481.39	20.5
3482.16	19
3482.93	25.5
3483.71	21
3484.48	22
3485.26	25
3486.03	24
3486.8	22.5
3487.58	25.5
3488.35	18.5
3489.12	24
3489.9	23
3490.67	25
3491.44	24.5
3492.21	24
3492.99	22
3493.76	25
3494.53	23.5
3495.3	24
3496.08	25.5
3496.85	20
3497.62	23.5
3498.39	23
3499.16	23
3499.94	21
