#Acq. time (s)=	5
#Accumulations=	5
#Range (cm-¹)=	100...3500
#Windows=	4
#Autofocus=	Off
#AutoExposure=	Off
#Spike filter=	Multiple accum.
#Delay time (s)=	0
#Binning=	1
#Readout mode=	Signal
#DeNoise=	Off
#ICS correction=	Off
#Dark correction=	Off
#Inst. Process=	Off
#Instrument=	LabRAM HR Evol
#Detector=	Syncerity OE
#Objective=	x100_VIS
#Grating=	600 (500nm)
#ND Filter=	25%
#Laser=	633nm_Edge
#Hole=	100.021
#Range=	Visible
#Project=	verificaciones
#Sample=	a3
#Site=	plain
#Title=	bolusa3plain
#Remark=	
#Date=	12.01.2026 15:57
#Acquired=	12.01.2026 15:57:05
100.666	23
101.95	32.5
103.233	35.5
104.516	29
105.799	27
107.083	27.5
108.365	27.5
109.648	29
110.93	32
112.212	28
113.493	25
114.775	30
116.056	31
117.337	35
118.618	30
119.898	29
121.178	28.5
122.459	31
123.739	28
125.018	30
126.298	31
127.577	30
128.856	29.5
130.135	31.5
131.414	29.5
132.692	35
133.971	31
135.249	34.5
136.525	33.5
137.803	31.5
139.08	36.5
140.357	33
141.634	36.5
142.911	33.5
144.188	36.5
145.464	33.5
146.74	35
148.015	38
149.291	35.5
150.566	33.5
151.842	39
153.117	38
154.392	41.5
155.665	33.5
156.939	36
158.214	41.5
159.488	35
160.76	37
162.034	35
163.307	36
164.581	38.5
165.854	37.5
167.125	32
168.398	33
169.67	36
170.941	39.5
172.213	38
173.485	35
174.756	36
176.026	39.5
177.298	39
178.569	40.5
179.838	37
181.109	35
182.379	40
183.648	42
184.918	34.5
186.187	36
187.455	39.5
188.725	35.5
189.992	39
191.261	36.5
192.53	39.5
193.797	36
195.065	37.5
196.332	38
197.6	33.5
198.866	36.5
200.134	33.5
201.401	35.5
202.667	34.5
203.933	35
205.199	35
206.465	33.5
207.73	32
208.996	28.5
210.26	34
211.526	31.5
212.79	31
214.055	30.5
215.319	31
216.582	30
217.847	28
219.11	29
220.374	32
221.636	30.5
222.9	30.5
224.162	31
225.424	32.5
226.687	31.5
227.949	28
229.212	28
230.473	27
231.734	26.5
232.996	28
234.256	31
235.517	32
236.778	32.5
238.038	31.5
239.298	28.5
240.559	29
241.818	27
243.077	29
244.337	30
245.596	29.5
246.854	31
248.113	29
249.372	27.5
250.63	27.5
251.887	28
253.145	27.5
254.404	26
255.661	27.5
256.917	25.5
258.174	30.5
259.432	26
260.688	24.5
261.944	31
263.2	29
264.456	24.5
265.711	30
266.968	28.5
268.223	31
269.477	28.5
270.732	30.5
271.986	27
273.24	28.5
274.494	26.5
275.748	25
277.003	30.5
278.257	28.5
279.51	33
280.763	29
282.015	25
283.268	27
284.52	29
285.773	26
287.024	27
288.276	26
289.528	27.5
290.779	29
292.03	29.5
293.281	24.5
294.532	28
295.782	26.5
297.033	26
298.283	26
299.533	30
300.783	27.5
302.032	29.5
303.281	25.5
304.531	26
305.78	29.5
307.028	28
308.275	28
309.524	28.5
310.772	23.5
312.02	29
313.267	28.5
314.515	26
315.762	31
317.009	28.5
318.255	27
319.501	27
320.748	24.5
321.994	26
323.24	28.5
324.486	29
325.731	27.5
326.976	22.5
328.221	32
329.466	27.5
330.71	26
331.955	24
333.199	29
334.443	26
335.686	28
336.93	28.5
338.174	28.5
339.417	26.5
340.659	31
341.902	27
343.145	26.5
344.386	24.5
345.629	30.5
346.871	24
348.112	27
349.354	31
350.595	27.5
351.836	29
353.077	27
354.318	33
355.557	27
356.798	27.5
358.037	29
359.277	28
360.518	25.5
361.756	28.5
362.996	24
364.234	27.5
365.473	28.5
366.711	32
367.95	26
369.187	28
370.426	27.5
371.662	26.5
372.901	29.5
374.137	33.5
375.375	29
376.611	27
377.848	21
379.084	25
380.321	29
381.556	26.5
382.793	25
384.027	29
385.264	27
386.498	29
387.732	23
388.968	28
390.202	27.5
391.437	29
392.671	27.5
393.904	32
395.138	27.5
396.371	23
397.604	23.5
398.838	24.5
400.07	23
401.302	27
402.536	28.5
403.768	26
404.999	26
406.232	26
407.463	26
408.694	28.5
409.925	29.5
411.157	29
412.387	29.5
413.617	30
414.847	28.5
416.078	30.5
417.308	26.5
418.537	25
419.767	24
420.997	29.5
422.226	26
423.454	24
424.683	27
425.911	26
427.139	28.5
428.368	27
429.596	29
430.823	26
432.05	28
433.277	28.5
434.504	28.5
435.731	27.5
436.957	27.5
438.185	31.5
439.411	31
440.637	23
441.862	29
443.088	27.5
444.313	31.5
445.538	30
446.763	28.5
447.988	26.5
449.212	30
450.436	28.5
451.661	22
452.884	29
454.108	29
455.332	28
456.555	25.5
457.778	29.5
459.001	30.5
460.224	25.5
461.446	32
462.668	33
463.891	34
465.111	29
466.333	29
467.554	34
468.776	34
469.997	32
471.218	28.5
472.439	31.5
473.659	33
474.878	32.5
476.098	42
477.318	36
478.538	42
479.758	42.5
480.977	44
482.195	47
483.414	50
484.633	50
485.851	52
487.07	53.5
488.287	55.5
489.505	55
490.723	52
491.94	49
493.156	48.5
494.374	49
495.591	47
496.806	43
498.023	41
499.239	40.5
500.456	40.5
501.67	38
502.886	43
504.102	32
505.316	35.5
506.531	30.5
507.745	33
508.96	37.5
510.175	35
511.388	33
512.602	32.5
513.815	32.5
515.029	33
516.243	32
517.455	31.5
518.669	28.5
519.88	30.5
521.093	31.5
522.305	31
523.518	24.5
524.729	33
525.941	29
527.151	27.5
528.363	27
529.574	28
530.785	27.5
531.995	29.5
533.206	30
534.416	23.5
535.626	31
536.835	24.5
538.046	29
539.254	22.5
540.463	28
541.673	29
542.881	34
544.09	28.5
545.298	30
546.506	30
547.714	28
548.922	28
550.13	24
551.337	26
552.544	25
553.751	22
554.958	30
556.164	27
557.37	27.5
558.577	29.5
559.782	28.5
560.987	27.5
562.194	22
563.399	28
564.604	27
565.808	30
567.014	27.5
568.218	24.5
569.422	30
570.626	27.5
571.829	28
573.034	27
574.237	27.5
575.44	27.5
576.643	28
577.846	31
579.048	25
580.252	28
581.454	28.5
582.656	29
583.857	28
585.059	27
586.26	27
587.461	28
588.662	25
589.863	28
591.065	28
592.265	27
593.465	27
594.665	26
595.865	29.5
597.065	26.5
598.264	28.5
599.463	25
600.662	26.5
601.861	23.5
603.06	25.5
604.258	28
605.457	25
606.655	29.5
607.853	28
609.05	26
610.248	25
611.444	28.5
612.641	27.5
613.838	30.5
615.034	28
616.231	30
617.427	25.5
618.624	26.5
619.82	26
621.015	27.5
622.21	29
623.405	26.5
624.6	27.5
625.795	27.5
626.99	29.5
628.185	29
629.378	29
630.572	26.5
631.766	28.5
632.96	28.5
634.154	27.5
635.346	32.5
636.54	25.5
637.733	25
638.926	24.5
640.117	25
641.31	28.5
642.502	27
643.693	27.5
644.885	27
646.077	29
647.267	27
648.459	25.5
649.65	29
650.84	28
652.031	27
653.222	30.5
654.411	28
655.601	27.5
656.791	33
657.98	28
659.17	25
660.358	27.5
661.547	26.5
662.737	28
663.924	29.5
665.113	32
666.3	30
667.489	32
668.676	34
669.864	30
671.05	29.5
672.238	28
673.424	27.5
674.612	31.5
675.798	29
676.985	30
678.17	31
679.357	35
680.542	33
681.728	35
682.913	34
684.097	28.5
685.283	32
686.467	34
687.652	35.5
688.836	36
690.02	36
691.205	31.5
692.388	32
693.571	32
694.755	32
695.938	31.5
697.12	31
698.304	35.5
699.486	32
700.668	32
701.851	36.5
703.032	36.5
704.214	39
705.395	41.5
706.577	48
707.758	43
708.939	43.5
710.119	41.5
711.301	37
712.481	36
713.661	38
714.84	32.5
716.02	28.5
717.201	31
718.38	33
719.559	28.5
720.737	28.5
721.916	32
723.094	30
724.274	31
725.452	29.5
726.63	29
727.808	28
728.985	31.5
730.162	33
731.339	23
732.516	24
733.693	31
734.87	25.5
736.046	27
737.222	28
738.398	30.5
739.574	25.5
740.75	30
741.925	30
743.1	27
744.276	25
745.45	27
746.625	26.5
747.8	27.5
748.974	27
750.148	29
751.322	30
752.496	29.5
753.67	31
754.843	26
756.016	30
757.189	26
758.362	25
759.534	25.5
760.706	26
761.878	26.5
763.051	26.5
764.223	27
765.394	26.5
766.565	28.5
767.736	26.5
768.907	23.5
770.078	27
771.249	27
772.419	25
773.589	29.5
774.759	25
775.93	23.5
777.098	31.5
778.268	26
779.438	29
780.607	29
781.775	25.5
782.944	26
784.113	29.5
785.28	29.5
786.449	29.5
787.617	32.5
788.784	33.5
789.952	32.5
791.12	29.5
792.286	30
793.453	28
794.62	26.5
795.786	30
796.953	31.5
798.118	22
799.285	27.5
800.45	26
801.616	27.5
802.782	28.5
803.946	27.5
805.112	23.5
806.276	26
807.441	26
808.605	25
809.77	25
810.933	30.5
812.098	29
813.261	29
814.425	24.5
815.588	28
816.75	28
817.914	26
819.076	27
820.239	27
821.401	28.5
822.564	26
823.725	25
824.886	27
826.048	28
827.209	24.5
828.37	19
829.532	31
830.692	31
831.852	26.5
833.013	26.5
834.173	28.5
835.333	27.5
836.493	28
837.653	26
838.812	28.5
839.972	28.5
841.13	27.5
842.289	27.5
843.447	30
844.607	26
845.765	26
846.922	30.5
848.08	28
849.237	28.5
850.396	27
851.553	30.5
852.71	26
853.867	26
855.023	30
856.179	28.5
857.337	29
858.493	31
859.649	29.5
860.804	31.5
861.96	29
863.115	33.5
864.27	29
865.425	28.5
866.58	27.5
867.734	28.5
868.888	28.5
870.043	28.5
871.197	27.5
872.35	27.5
873.504	23.5
874.658	29.5
875.811	26.5
876.964	26
878.117	27.5
879.27	26
880.422	29.5
881.575	29
882.727	26
883.879	25
885.031	27
886.182	25.5
887.334	29.5
888.485	26
889.636	27
890.787	21
891.937	28.5
893.088	29.5
894.238	29.5
895.388	26
896.538	26
897.688	23
898.837	27
899.986	29.5
901.136	26
902.285	24
903.434	29
904.581	23
905.73	30
906.878	28.5
908.027	28.5
909.174	28
910.321	27
911.469	26
912.617	27
913.763	26
914.91	25
916.057	27.5
917.203	28
918.35	27
919.496	25
920.641	23.5
921.787	24.5
922.933	25
924.078	29
925.224	29
926.368	25.5
927.513	24
928.658	23.5
929.802	28
930.946	22
932.09	25.5
933.234	26.5
934.377	24.5
935.521	23.5
936.664	26
937.807	24
938.95	23.5
940.093	23
941.235	24
942.378	30
943.519	25.5
944.662	24.5
945.803	25.5
946.946	29
948.086	27
949.227	28
950.369	27
951.509	23.5
952.651	24
953.79	24.5
954.93	25.5
956.071	26.5
957.211	26.5
958.35	28
959.49	29
960.629	24
961.768	28
962.908	21.5
964.046	23.5
965.184	28
966.323	28.5
967.461	28.5
968.599	26.5
969.736	26
970.875	25.25
972.012	24.5
973.149	26.5
974.286	27.5
975.424	26
976.56	25
977.697	26.5
978.833	26.5
979.969	26.5
981.104	29
982.241	29
983.377	26
984.512	24.5
985.647	28
986.782	25
987.916	26
989.051	27
990.185	26.5
991.321	24.5
992.455	25
993.589	26.5
994.722	29.5
995.856	26
996.989	16
998.122	22.5
999.255	26
1000.39	29
1001.52	28
1002.65	28
1003.79	24
1004.92	27
1006.05	22.5
1007.18	26
1008.31	28
1009.44	28.5
1010.57	23
1011.7	26
1012.84	22
1013.97	23
1015.1	26
1016.23	27
1017.36	24
1018.49	19
1019.62	27
1020.75	27
1021.88	24
1023	25
1024.13	25.5
1025.26	26
1026.39	28.5
1027.52	25
1028.65	23
1029.78	23.5
1030.9	26
1032.03	26
1033.16	25
1034.29	22.5
1035.41	23
1036.54	24.5
1037.67	24
1038.79	24
1039.92	30
1041.04	25.5
1042.17	21.5
1043.3	21
1044.42	24
1045.55	25
1046.67	25.5
1047.8	27
1048.92	22.5
1050.05	27
1051.17	26.5
1052.3	22
1053.42	23
1054.54	23
1055.67	25
1056.79	26.5
1057.91	27
1059.04	26.5
1060.16	25.5
1061.28	25
1062.41	24
1063.53	22
1064.65	26.5
1065.77	26.5
1066.9	25
1068.02	27
1069.14	22.5
1070.26	25.5
1071.38	27
1072.5	24.5
1073.62	29.5
1074.74	22.5
1075.86	24.5
1076.98	22
1078.1	19
1079.22	23.5
1080.34	27
1081.46	25
1082.58	25
1083.7	27
1084.82	22.5
1085.94	21
1087.06	26
1088.18	24
1089.29	25
1090.41	27
1091.53	20.5
1092.65	25
1093.77	24
1094.88	23
1096	26
1097.12	27
1098.23	24.5
1099.35	24
1100.47	25.5
1101.58	24
1102.7	22
1103.82	24
1104.93	24
1106.05	24.5
1107.16	24
1108.28	24
1109.39	26
1110.51	24.5
1111.62	25.5
1112.74	21
1113.85	28.5
1114.96	24.5
1116.08	24.5
1117.19	24
1118.31	24.5
1119.42	27.5
1120.53	22
1121.65	25.5
1122.76	26
1123.87	28
1124.98	21
1126.1	24
1127.21	25.5
1128.32	26.5
1129.43	27
1130.54	24.5
1131.65	25
1132.76	26
1133.88	24
1134.99	22.5
1136.1	28
1137.21	26
1138.32	20
1139.43	23
1140.54	24
1141.65	23
1142.76	22
1143.87	26
1144.98	27
1146.08	24.5
1147.19	24
1148.3	24
1149.41	26.5
1150.52	23.5
1151.63	24.5
1152.73	21.5
1153.84	27
1154.95	24
1156.06	23
1157.17	21.5
1158.27	24.5
1159.38	25
1160.49	23
1161.59	27.5
1162.7	23
1163.8	27
1164.91	28
1166.02	23
1167.12	25
1168.23	29
1169.33	29.5
1170.44	23
1171.54	28
1172.65	22.5
1173.75	26
1174.86	22.5
1175.96	26
1177.06	23
1178.17	27.5
1179.27	28
1180.37	22
1181.48	21
1182.58	24.5
1183.68	25
1184.79	24.5
1185.89	30
1186.99	23
1188.09	22
1189.2	24
1190.3	21
1191.4	22.5
1192.5	25.5
1193.6	26.5
1194.7	27.4674
1195.8	25.9362
1196.9	26.0151
1198.01	18.6112
1199.11	26.9373
1200.21	24.6869
1201.31	27.9492
1202.41	24.4462
1203.5	24.0756
1204.6	25.3776
1205.7	23.8389
1206.8	20.6761
1207.9	23.3877
1209	24.3129
1210.1	24.3592
1211.2	21.417
1212.3	21.6266
1213.39	18.9675
1214.49	25.0078
1215.59	23.8705
1216.69	23.7237
1217.78	25.0602
1218.88	22.5112
1219.98	26.5064
1221.08	22.148
1222.17	23.4904
1223.27	24.2396
1224.37	27.5445
1225.46	24.6627
1226.56	24.6071
1227.65	21.564
1228.75	23.9476
1229.84	23.1845
1230.94	23.5443
1232.03	23.1999
1233.13	25.1558
1234.22	22.7148
1235.32	26.0523
1236.41	21.6262
1237.51	24.7259
1238.6	23.2623
1239.69	22.6133
1240.79	23.0619
1241.88	24.9208
1242.97	21.9366
1244.07	22.3198
1245.16	23.9831
1246.25	24.5185
1247.35	22.8386
1248.44	26.0713
1249.53	25.4127
1250.62	24.066
1251.71	24.2495
1252.81	23.1871
1253.9	22.8835
1254.99	24.4642
1256.08	23.2913
1257.17	25.6373
1258.26	27.3587
1259.35	25.8438
1260.44	25.8491
1261.53	24.6799
1262.62	27.4721
1263.71	26.6463
1264.8	24.8476
1265.89	26.5347
1266.98	24.349
1268.07	24.3944
1269.16	27.4205
1270.25	23.4495
1271.34	22.81
1272.43	24.2822
1273.52	23.5987
1274.6	22.8898
1275.69	24.7912
1276.78	22.626
1277.87	26.3858
1278.95	24.2396
1280.04	22.6454
1281.13	23.5731
1282.22	24.4757
1283.3	21.0978
1284.39	21.568
1285.48	22.2637
1286.56	25.8704
1287.65	24.8476
1288.73	24.1722
1289.82	21.9056
1290.91	19.7211
1291.99	22.5921
1293.08	21.0668
1294.16	24.0756
1295.24	23.828
1296.33	26.1074
1297.41	22.9159
1298.5	23.6308
1299.58	24.6941
1300.67	22.8827
1301.75	25.4086
1302.83	25.5642
1303.92	22.8875
1305	23.0804
1306.08	24.5789
1306.4	25
1307.49	25.5
1308.58	26
1309.66	22
1310.75	25.5
1311.84	26
1312.93	23
1314.01	21
1315.1	21.5
1316.19	22
1317.27	27
1318.36	25.5
1319.45	23
1320.53	25
1321.62	26.5
1322.71	25.5
1323.79	26
1324.88	26.5
1325.96	25.5
1327.05	24
1328.13	23.5
1329.22	24.5
1330.3	22
1331.39	26.5
1332.47	21
1333.55	23.5
1334.64	23.5
1335.72	25.5
1336.81	24
1337.89	22
1338.97	29.5
1340.06	22
1341.14	24
1342.22	31
1343.3	24
1344.39	24
1345.47	25
1346.55	24
1347.63	23.5
1348.71	25
1349.8	26
1350.88	22
1351.96	25
1353.04	25
1354.12	28
1355.2	25.5
1356.28	23
1357.36	29.5
1358.44	25.5
1359.52	23
1360.6	24
1361.68	25
1362.76	27.5
1363.84	27
1364.92	26.5
1366	28
1367.08	26.5
1368.16	23
1369.23	23.5
1370.31	24.5
1371.39	22.5
1372.47	25
1373.55	28
1374.62	23
1375.7	24.5
1376.78	23
1377.86	28
1378.93	25.5
1380.01	24.5
1381.09	25.5
1382.16	22.5
1383.24	22.5
1384.32	24
1385.39	28
1386.47	29
1387.54	28
1388.62	24
1389.69	23
1390.77	20.5
1391.84	27
1392.92	28
1393.99	27
1395.07	25
1396.14	23
1397.21	29.5
1398.29	31.5
1399.36	30.5
1400.44	29
1401.51	27
1402.58	30
1403.66	27
1404.73	28.5
1405.8	33.5
1406.87	28
1407.95	27.5
1409.02	31
1410.09	30.5
1411.16	30.5
1412.23	25
1413.3	33
1414.38	35
1415.45	31.5
1416.52	30.5
1417.59	30
1418.66	25.5
1419.73	27.5
1420.8	22.5
1421.87	27.5
1422.94	28
1424.01	28
1425.08	24
1426.15	27
1427.22	25.5
1428.29	24
1429.36	27.5
1430.43	27
1431.49	25
1432.56	23.5
1433.63	26
1434.7	26
1435.77	26.5
1436.83	27
1437.9	25
1438.97	26
1440.04	25
1441.1	25
1442.17	25.5
1443.24	21.5
1444.3	26.5
1445.37	26
1446.44	25
1447.5	28.5
1448.57	25.5
1449.63	24.5
1450.7	28.5
1451.77	25
1452.83	25
1453.9	25.5
1454.96	22.5
1456.03	28
1457.09	25
1458.15	26.5
1459.22	28.5
1460.28	29
1461.35	28.5
1462.41	24.5
1463.47	24
1464.54	24
1465.6	26.5
1466.66	23
1467.73	25
1468.79	25.5
1469.85	26.5
1470.91	23.5
1471.98	25.5
1473.04	23.5
1474.1	25.5
1475.16	26
1476.22	23.5
1477.28	23.5
1478.35	26
1479.41	25.5
1480.47	23
1481.53	21
1482.59	26.5
1483.65	26
1484.71	25
1485.77	25
1486.83	24
1487.89	29
1488.95	25
1490.01	27
1491.07	28.5
1492.13	28
1493.18	23
1494.24	26
1495.3	28
1496.36	24.5
1497.42	27.5
1498.48	26.5
1499.53	29.5
1500.59	28.5
1501.65	24
1502.71	23.5
1503.76	25.5
1504.82	29
1505.88	22.5
1506.93	29
1507.99	23
1509.05	24.5
1510.1	26
1511.16	26
1512.21	25
1513.27	25
1514.33	25.5
1515.38	23.5
1516.44	22.5
1517.49	21
1518.55	26
1519.6	23
1520.66	25.5
1521.71	26.5
1522.76	23.5
1523.82	25
1524.87	24
1525.93	27.5
1526.98	23.5
1528.03	27.5
1529.08	27.5
1530.14	24
1531.19	26
1532.24	30
1533.3	26
1534.35	22
1535.4	25
1536.45	29.5
1537.5	26.5
1538.56	25.5
1539.61	22.5
1540.66	22
1541.71	24
1542.76	22
1543.81	26.5
1544.86	23.5
1545.91	23.5
1546.96	29
1548.01	26
1549.06	22.5
1550.11	23
1551.16	25
1552.21	24.5
1553.26	28.5
1554.31	24
1555.36	25
1556.41	26
1557.46	26
1558.51	24
1559.56	25.5
1560.6	21
1561.65	25
1562.7	26.5
1563.75	26
1564.79	25.5
1565.84	26
1566.89	28.5
1567.94	27.5
1568.98	26.5
1570.03	28
1571.08	21.5
1572.12	24
1573.17	23
1574.22	27.5
1575.26	23
1576.31	25.5
1577.35	25.5
1578.4	24
1579.44	22
1580.49	30
1581.53	27.5
1582.58	21
1583.62	22.5
1584.67	29
1585.71	25
1586.76	25.5
1587.8	27
1588.84	23.5
1589.89	28.5
1590.93	23.5
1591.97	21
1593.02	25
1594.06	18
1595.1	28.5
1596.14	26.5
1597.19	21
1598.23	26
1599.27	22
1600.31	23.5
1601.36	23.5
1602.4	25
1603.44	22.5
1604.48	26
1605.52	26
1606.56	25.5
1607.6	24.5
1608.64	25
1609.68	26
1610.72	26.5
1611.76	28.5
1612.81	27
1613.84	23.5
1614.88	25.5
1615.92	28.5
1616.96	26
1618	30
1619.04	28
1620.08	24
1621.12	28.5
1622.16	26
1623.2	29.5
1624.23	25
1625.27	25.5
1626.31	26.5
1627.35	23
1628.39	26.5
1629.42	28.5
1630.46	25.5
1631.5	24
1632.53	28
1633.57	23
1634.61	26.5
1635.64	27.5
1636.68	26
1637.72	24
1638.75	23.5
1639.79	27.5
1640.82	25.5
1641.86	26
1642.89	26
1643.93	23.5
1644.96	26
1646	26
1647.03	26
1648.07	27
1649.1	24.5
1650.14	25
1651.17	22
1652.21	26.5
1653.24	24
1654.27	23
1655.31	26.5
1656.34	25
1657.37	27.5
1658.41	22
1659.44	26.5
1660.47	26
1661.5	26.5
1662.53	27
1663.57	21
1664.6	26
1665.63	25.5
1666.66	26
1667.69	23
1668.72	26.5
1669.76	27.5
1670.79	27.5
1671.82	29.5
1672.85	24
1673.88	22.5
1674.91	21
1675.94	26
1676.97	24
1678	26.5
1679.03	23
1680.06	25.5
1681.09	28
1682.12	26
1683.15	27
1684.17	27
1685.2	22
1686.23	25
1687.26	26
1688.29	26
1689.32	24
1690.34	27
1691.37	25.5
1692.4	30.5
1693.43	23.5
1694.45	28
1695.48	28.5
1696.51	27
1697.54	26.5
1698.56	27
1699.59	27.5
1700.61	24.5
1701.64	28.5
1702.67	27.5
1703.69	27
1704.72	24.5
1705.74	23.5
1706.77	25
1707.79	28
1708.82	22.5
1709.84	26
1710.87	26.5
1711.89	26.5
1712.92	29
1713.94	24.5
1714.97	21
1715.99	23.5
1717.01	26.5
1718.04	25.5
1719.06	23
1720.08	26.5
1721.11	27.5
1722.13	25.5
1723.15	30
1724.18	21
1725.2	28
1726.22	27
1727.24	26.5
1728.26	29
1729.29	23.5
1730.31	23.5
1731.33	28.5
1732.35	28
1733.37	25
1734.39	23.5
1735.41	26.5
1736.43	26
1737.45	25
1738.47	23
1739.5	25.5
1740.52	25
1741.53	25
1742.55	25.5
1743.57	25
1744.59	27
1745.61	26
1746.63	26
1747.65	23.5
1748.67	27
1749.69	23.5
1750.71	28
1751.72	25.5
1752.74	29
1753.76	28
1754.78	25.5
1755.8	26
1756.81	24
1757.83	23.5
1758.85	22
1759.87	23
1760.88	27.5
1761.9	23
1762.92	25
1763.93	24
1764.95	26
1765.96	27
1766.98	25
1768	24.5
1769.01	23
1770.03	28
1771.04	26
1772.06	21
1773.07	26.5
1774.09	28
1775.1	22
1776.12	26.5
1777.13	27
1778.15	27.5
1779.16	27.5
1780.17	25
1781.19	29
1782.2	27
1783.21	28
1784.23	25.5
1785.24	22
1786.25	27.5
1787.27	25.5
1788.28	21
1789.29	25.5
1790.3	27
1791.32	25.5
1792.33	25
1793.34	24
1794.35	23.5
1795.36	25.5
1796.38	25.5
1797.39	24
1798.4	22
1799.41	25.5
1800.42	28
1801.43	26.5
1802.44	25
1803.45	25
1804.46	25
1805.47	25
1806.48	25
1807.49	24.5
1808.5	25
1809.51	22.5
1810.52	27
1811.53	29
1812.53	26
1813.54	28.5
1814.55	22
1815.56	23
1816.57	26
1817.58	28
1818.59	21
1819.59	24
1820.6	25.5
1821.61	23
1822.62	27
1823.62	27
1824.63	23.5
1825.64	25.5
1826.64	28.5
1827.65	28.5
1828.66	25.5
1829.66	24.5
1830.67	22.5
1831.67	22
1832.68	25
1833.69	24.5
1834.69	26.5
1835.7	26.5
1836.7	26
1837.71	23
1838.71	25
1839.72	21
1840.72	27
1841.72	23.5
1842.73	24.5
1843.73	29
1844.74	26
1845.74	23
1846.74	22.5
1847.75	25
1848.75	28
1849.75	27.5
1850.76	24
1851.76	26
1852.76	28
1853.76	24.5
1854.77	27
1855.77	24.5
1856.77	26
1857.77	21.5
1858.78	23
1859.78	26
1860.78	24.5
1861.78	23
1862.78	26
1863.78	24
1864.78	23
1865.78	27.5
1866.78	25
1867.78	26
1868.78	23.5
1869.78	22.5
1870.78	25
1871.78	27.5
1872.78	24
1873.78	24.5
1874.78	24.5
1875.78	24
1876.78	23
1877.78	28.5
1878.78	26.5
1879.78	27
1880.77	26
1881.77	23.5
1882.77	28
1883.77	27
1884.77	25
1885.76	25
1886.76	22.5
1887.76	25
1888.75	24.5
1889.75	22.5
1890.75	24
1891.74	25.5
1892.74	26.5
1893.74	24.5
1894.73	26.5
1895.73	25
1896.73	21.5
1897.72	23
1898.72	23
1899.71	27
1900.71	26.5
1901.7	25.5
1902.7	22.5
1903.69	25
1904.69	24.5
1905.68	21
1906.68	26.5
1907.67	27.5
1908.66	26
1909.66	22
1910.65	24
1911.64	26
1912.64	23
1913.63	24
1914.62	27.5
1915.62	24
1916.61	23.5
1917.6	21
1918.6	27
1919.59	24
1920.58	27
1921.57	24.5
1922.56	23
1923.55	25.5
1924.55	23
1925.54	20
1926.53	21.5
1927.52	25
1928.51	26
1929.5	25
1930.49	27
1931.48	24.5
1932.47	26.5
1933.46	24.5
1934.45	26.5
1935.44	27.5
1936.43	25
1937.42	22.5
1938.41	27.5
1939.4	21
1940.39	26
1941.38	26.5
1942.37	25
1943.36	23
1944.35	18
1945.33	21
1946.32	27
1947.31	27
1948.3	24
1949.29	21
1950.27	22
1951.26	23
1952.25	24.5
1953.24	24
1954.22	21.5
1955.21	25
1956.2	24.5
1957.18	21
1958.17	23
1959.16	23.5
1960.14	25
1961.13	23.5
1962.11	23
1963.1	22
1964.08	27
1965.07	22
1966.05	21.5
1967.04	23.5
1968.02	24
1969.01	25.5
1969.99	27.5
1970.98	18
1971.96	25.5
1972.95	22.5
1973.93	28
1974.91	21
1975.9	28
1976.88	20.5
1977.86	27
1978.85	23.5
1979.83	24.5
1980.81	28
1981.8	23
1982.78	21.5
1983.76	25
1984.74	27
1985.73	22.5
1986.71	25.5
1987.69	26
1988.67	25.5
1989.65	25
1990.63	23
1991.62	22
1992.6	25
1993.58	25
1994.56	21
1995.54	25
1996.52	23
1997.5	22.5
1998.48	26
1999.46	24.5
2000.44	24.5
2001.42	24
2002.4	27
2003.38	24
2004.36	24
2005.34	25
2006.32	27
2007.29	21
2008.27	24
2009.25	23
2010.23	27
2011.21	29
2012.19	26
2013.17	21
2014.14	25.5
2015.12	26
2016.1	24
2017.07	25
2018.05	23.5
2019.03	22.5
2020.01	22
2020.98	25
2021.96	22.5
2022.94	22.5
2023.91	27.5
2024.89	24
2025.86	21
2026.84	24
2027.82	22
2028.79	21
2029.77	23.5
2030.74	23
2031.72	26.5
2032.69	27
2033.67	25
2034.64	26.5
2035.62	22
2036.59	23.5
2037.56	24
2038.54	23.5
2039.51	26.5
2040.49	23.5
2041.46	24.5
2042.43	24.5
2043.41	23.5
2044.38	27
2045.35	25
2046.32	20.5
2047.3	24
2048.27	24
2049.24	23
2050.21	26
2051.19	24.5
2052.16	24
2053.13	22.5
2054.1	24
2055.07	23
2056.05	21
2057.02	24.5
2057.99	23
2058.96	23
2059.93	20.5
2060.9	25.5
2061.87	21.5
2062.84	20.5
2063.81	19
2064.78	18
2065.75	22.5
2066.72	20.5
2067.69	21
2068.66	23
2069.63	18.5
2070.6	24
2071.57	25
2072.54	26
2073.5	22.5
2074.47	25
2075.44	24.5
2076.41	24.5
2077.38	23.5
2078.35	17.5
2079.31	24
2080.28	22
2081.25	25.5
2082.22	22
2083.18	22
2084.15	22.5
2085.12	27.5
2086.08	24.5
2087.05	24.5
2088.02	20
2088.98	26
2089.95	27
2090.92	25.5
2091.88	24.5
2092.85	23
2093.81	20.5
2094.78	25
2095.74	22.5
2096.71	21
2097.67	19.5
2098.64	21
2099.6	27.5
2100.57	24
2101.53	23.5
2102.5	27.5
2103.46	23
2104.42	24.5
2105.39	20
2106.35	23.5
2107.32	26.5
2108.28	21
2109.24	23.5
2110.21	25
2111.17	26
2112.13	24.5
2113.09	22
2114.06	26
2115.02	24
2115.98	25
2116.94	25
2117.91	24.5
2118.87	25.5
2119.83	24
2120.79	23
2121.75	24.5
2122.71	25
2123.67	24
2124.63	21.5
2125.6	24
2126.56	21.5
2127.52	25.5
2128.48	26.5
2129.44	22.5
2130.4	23
2131.36	23.5
2132.32	22
2133.28	23.5
2134.23	23
2135.19	23.5
2136.15	21
2137.11	22.5
2138.07	22
2139.03	25.5
2139.99	23.5
2140.95	25
2141.9	25.5
2142.86	24.4922
2143.82	21.4941
2144.78	20.1069
2145.74	21.5956
2146.69	21.017
2147.65	22.0267
2148.61	20.6341
2149.57	22.0107
2150.52	25.1134
2151.48	21.2394
2152.44	21.7176
2153.39	23.197
2154.35	20.9039
2155.31	23.22
2156.26	23.9002
2157.22	21.9527
2158.17	20.8225
2159.13	20.6874
2160.08	21.7255
2161.04	23.1402
2161.99	22.6659
2162.95	22.5864
2163.91	21.4167
2164.86	21.5249
2165.81	21.5382
2166.77	26.3478
2167.72	21.6095
2168.68	21.9812
2169.63	25.585
2170.58	21.8126
2171.54	22.4291
2172.49	22.1153
2173.45	23.7276
2174.4	19.9389
2175.35	23.0953
2176.31	21.8277
2177.26	21.212
2178.21	21.2962
2179.16	22.4555
2180.12	21.7054
2181.07	24.9593
2182.02	21.9953
2182.97	20.4608
2183.92	20.6088
2184.88	24.2464
2185.83	22.1289
2186.78	21.6559
2187.73	22.5163
2188.68	21.9822
2189.63	22.5952
2190.58	22.2002
2191.53	21.5479
2192.49	24.4911
2193.43	22.4584
2194.39	21.948
2195.34	21.6171
2196.28	23.0945
2197.24	20.5741
2198.19	24.0397
2199.13	22.8825
2200.08	22.0438
2201.03	20.0603
2201.98	21.2495
2202.93	21.5165
2203.88	23.658
2204.83	24.8906
2205.78	23.4229
2206.73	21.6017
2207.67	23.3388
2208.62	24.2108
2209.57	21.2043
2210.52	20.555
2211.47	20.7149
2212.41	22.981
2213.36	19.9023
2214.31	22.4434
2215.26	21.4313
2216.2	23.0326
2217.15	23.0093
2218.1	21.3478
2219.04	22.1948
2219.99	22.9557
2220.93	22.7659
2221.88	22.6893
2222.83	21.5325
2223.77	21.585
2224.72	22.8002
2225.66	21.4839
2226.61	23.2142
2227.55	24.4555
2228.5	21.1506
2229.44	20.6117
2230.39	23.7646
2231.33	21.4866
2232.28	20.3393
2233.22	23.8633
2234.17	23.3321
2235.11	26.177
2236.06	25.398
2237	22.3161
2237.94	22.612
2238.89	23.7073
2239.83	23.9854
2240.06	24
2241.01	21
2241.96	20.5
2242.9	21
2243.85	21.5
2244.8	18
2245.75	21
2246.69	19
2247.64	22.5
2248.59	26
2249.53	23.5
2250.48	23
2251.43	23.5
2252.37	24
2253.32	25
2254.27	22
2255.21	24.5
2256.16	24
2257.1	16.5
2258.05	24
2259	19.5
2259.94	23
2260.89	23.5
2261.83	25
2262.78	24.5
2263.72	25
2264.67	22.5
2265.61	23
2266.56	23
2267.5	21.5
2268.44	23.5
2269.39	21
2270.33	22
2271.27	24
2272.22	26
2273.16	22.5
2274.1	23
2275.05	25
2275.99	21
2276.93	21.5
2277.88	25.5
2278.82	22
2279.76	22
2280.7	22
2281.65	27.5
2282.59	20
2283.53	26.5
2284.47	20.5
2285.41	26
2286.35	23.5
2287.29	23.5
2288.24	24.5
2289.18	21
2290.12	23
2291.06	22.5
2292	25
2292.94	24
2293.88	23.5
2294.82	24.5
2295.76	21.5
2296.7	23.5
2297.64	22
2298.58	24
2299.52	24.5
2300.46	24
2301.4	26
2302.34	26
2303.28	23.5
2304.21	21.5
2305.15	21
2306.09	25.5
2307.03	26
2307.97	23
2308.91	22.5
2309.84	23
2310.78	24.5
2311.72	25
2312.66	20.5
2313.59	22
2314.53	24.5
2315.47	24
2316.4	25
2317.34	22.5
2318.28	22
2319.22	26.5
2320.15	22.5
2321.09	27.5
2322.02	20.5
2322.96	21.5
2323.89	26
2324.83	24
2325.77	24
2326.7	23
2327.64	23
2328.57	22.5
2329.51	24.5
2330.44	25
2331.38	20
2332.31	24.5
2333.25	23
2334.18	20
2335.11	19.5
2336.05	17
2336.98	25
2337.92	26.5
2338.85	22
2339.78	24
2340.72	24.5
2341.65	26
2342.58	22
2343.52	21
2344.45	24
2345.38	25.5
2346.31	24
2347.25	22
2348.18	24.5
2349.11	27.5
2350.04	28.5
2350.97	25.5
2351.9	21
2352.84	24
2353.77	25
2354.7	28
2355.63	23
2356.56	26
2357.49	20.5
2358.42	22.5
2359.35	18
2360.28	24.5
2361.21	24
2362.14	20.5
2363.07	23
2364	26
2364.93	24.5
2365.86	23
2366.79	20.5
2367.72	25
2368.65	25.5
2369.58	26
2370.51	23
2371.44	20.5
2372.36	22
2373.29	21.5
2374.22	18.5
2375.15	21.5
2376.08	24
2377.01	24.5
2377.93	23
2378.86	23
2379.79	23
2380.72	26.5
2381.64	24.5
2382.57	22
2383.5	21
2384.42	26
2385.35	22.5
2386.28	23
2387.2	23
2388.13	22.5
2389.06	23
2389.98	21
2390.91	21.5
2391.83	23.5
2392.76	21
2393.69	21
2394.61	20.5
2395.54	24
2396.46	24
2397.39	25.5
2398.31	25
2399.23	24
2400.16	23
2401.08	24
2402.01	25
2402.93	26
2403.86	28
2404.78	24
2405.7	21
2406.63	25
2407.55	23.5
2408.47	24
2409.4	24
2410.32	24.5
2411.24	22
2412.17	22.5
2413.09	24.5
2414.01	24.5
2414.93	22
2415.85	23
2416.78	21.5
2417.7	21
2418.62	27.5
2419.54	27.5
2420.46	22
2421.38	21
2422.31	27
2423.23	24
2424.15	24
2425.07	23
2425.99	25
2426.91	24
2427.83	22
2428.75	18.5
2429.67	24.5
2430.59	22.5
2431.51	27
2432.43	24
2433.35	22
2434.27	24.5
2435.19	24.5
2436.11	26.5
2437.03	21
2437.94	23
2438.86	22.5
2439.78	25
2440.7	24.5
2441.62	24.5
2442.54	27
2443.46	22
2444.37	23
2445.29	28
2446.21	26
2447.13	26
2448.04	20
2448.96	26
2449.88	21
2450.8	22.5
2451.71	26
2452.63	24
2453.55	26
2454.46	25.5
2455.38	21
2456.29	23
2457.21	23
2458.13	24.5
2459.04	24
2459.96	19.5
2460.87	23.5
2461.79	23.5
2462.7	24
2463.62	25
2464.53	27
2465.45	29
2466.36	24
2467.28	23.5
2468.19	27
2469.11	28
2470.02	25
2470.93	24.5
2471.85	24.5
2472.76	25.5
2473.67	24
2474.59	26
2475.5	22.5
2476.42	23.5
2477.33	22.5
2478.24	27.5
2479.15	24.5
2480.07	26
2480.98	21
2481.89	26
2482.8	28
2483.72	24.5
2484.63	23
2485.54	24
2486.45	22.5
2487.36	24.5
2488.27	20.5
2489.19	29
2490.1	23.5
2491.01	24.5
2491.92	23.5
2492.83	24
2493.74	19.5
2494.65	23
2495.56	24
2496.47	25
2497.38	24
2498.29	23.5
2499.2	25
2500.11	25
2501.02	27
2501.93	23
2502.84	24.5
2503.75	21
2504.66	23
2505.57	24.5
2506.47	26
2507.38	25.5
2508.29	25
2509.2	23
2510.11	26
2511.02	23.5
2511.92	25.5
2512.83	22.5
2513.74	25.5
2514.65	21
2515.55	27
2516.46	22.5
2517.37	25.5
2518.28	28
2519.18	20.5
2520.09	23
2521	27
2521.9	23.5
2522.81	19
2523.72	24
2524.62	26
2525.53	29
2526.43	24.5
2527.34	21.5
2528.24	27
2529.15	24.5
2530.06	24.5
2530.96	26
2531.87	22.5
2532.77	25
2533.68	21
2534.58	27
2535.48	28
2536.39	23.5
2537.29	25.5
2538.2	27
2539.1	21
2540	24
2540.91	19
2541.81	25
2542.72	19.5
2543.62	25
2544.52	26.5
2545.42	22
2546.33	25.5
2547.23	23.5
2548.13	22
2549.04	22.5
2549.94	25.5
2550.84	23.5
2551.74	25
2552.64	25
2553.55	22
2554.45	23
2555.35	25
2556.25	26
2557.15	22.5
2558.05	25
2558.95	26.5
2559.85	22.5
2560.76	25
2561.66	26.5
2562.56	25.5
2563.46	22.5
2564.36	23
2565.26	22.5
2566.16	23.5
2567.06	24
2567.96	23
2568.86	23
2569.76	25
2570.66	22
2571.55	25
2572.45	21
2573.35	20.5
2574.25	22.5
2575.15	26
2576.05	23
2576.95	26.5
2577.84	22
2578.74	23
2579.64	21
2580.54	22
2581.44	26
2582.33	23
2583.23	24
2584.13	22
2585.03	22
2585.92	24.5
2586.82	22
2587.72	22.5
2588.61	28
2589.51	30.5
2590.41	26.5
2591.3	25
2592.2	23
2593.09	24.5
2593.99	22.5
2594.89	20.5
2595.78	25
2596.68	24
2597.57	24.5
2598.47	25.5
2599.36	24
2600.26	22
2601.15	22.5
2602.05	26
2602.94	26
2603.84	24
2604.73	23
2605.63	26.5
2606.52	25.5
2607.41	23
2608.31	27
2609.2	22
2610.09	23.5
2610.99	24.5
2611.88	24
2612.77	23.5
2613.67	28
2614.56	23.5
2615.45	23
2616.35	25
2617.24	24.5
2618.13	22
2619.02	25.5
2619.91	21
2620.81	30
2621.7	23
2622.59	27
2623.48	25
2624.37	23
2625.26	25.5
2626.15	27
2627.05	23
2627.94	25.5
2628.83	21.5
2629.72	27
2630.61	28.5
2631.5	24
2632.39	21
2633.28	25
2634.17	22
2635.06	23.5
2635.95	23.5
2636.84	20.5
2637.73	27.5
2638.62	23.5
2639.51	24
2640.4	24.5
2641.28	27
2642.17	26
2643.06	25.5
2643.95	26.5
2644.84	19.5
2645.73	23
2646.62	25
2647.5	26.5
2648.39	27.5
2649.28	24
2650.17	23.5
2651.05	22.5
2651.94	21
2652.83	21
2653.72	22.5
2654.6	24
2655.49	24
2656.38	23.5
2657.26	25
2658.15	19.5
2659.04	22
2659.92	25
2660.81	26.5
2661.69	24
2662.58	20
2663.47	21
2664.35	20
2665.24	27
2666.12	25
2667.01	23.5
2667.89	28.5
2668.78	22
2669.66	26
2670.55	28
2671.43	27
2672.32	25
2673.2	23.5
2674.08	22
2674.97	27
2675.85	24.5
2676.74	25
2677.62	23.5
2678.5	24.5
2679.39	24.5
2680.27	24.5
2681.15	27.5
2682.04	25
2682.92	24
2683.8	25
2684.68	26
2685.57	23
2686.45	27.5
2687.33	22.5
2688.21	26
2689.09	21.5
2689.98	25
2690.86	21
2691.74	21
2692.62	24.5
2693.5	27
2694.38	25.5
2695.27	24
2696.15	21.5
2697.03	24
2697.91	20.5
2698.79	24
2699.67	25
2700.55	26
2701.43	27
2702.31	22
2703.19	28
2704.07	26.5
2704.95	19
2705.83	26
2706.71	22.5
2707.59	24.5
2708.47	24
2709.34	26
2710.22	23.5
2711.1	24
2711.98	25
2712.86	24
2713.74	24
2714.62	26
2715.49	23.5
2716.37	24.5
2717.25	23.5
2718.13	25.5
2719.01	26.5
2719.88	27.5
2720.76	19
2721.64	27
2722.51	20
2723.39	25
2724.27	23
2725.14	22
2726.02	24
2726.9	25.5
2727.77	27.5
2728.65	27
2729.53	23
2730.4	24.5
2731.28	19
2732.15	20.5
2733.03	27.5
2733.91	23.5
2734.78	24
2735.66	23
2736.53	22.5
2737.41	27
2738.28	26
2739.16	21
2740.03	23.5
2740.9	22.5
2741.78	25.5
2742.65	24.5
2743.53	23
2744.4	24
2745.27	22.5
2746.15	24.5
2747.02	27.5
2747.89	26
2748.77	22
2749.64	25.5
2750.51	25
2751.39	23.5
2752.26	25.5
2753.13	24.5
2754.01	25.5
2754.88	22
2755.75	22
2756.62	26.5
2757.49	21.5
2758.37	24.5
2759.24	22.5
2760.11	24
2760.98	23
2761.85	25.5
2762.72	25
2763.59	23.5
2764.46	24
2765.34	27.5
2766.21	24.5
2767.08	20.5
2767.95	22.5
2768.82	21
2769.69	22
2770.56	26.5
2771.43	21.5
2772.3	25
2773.17	24.5
2774.04	23
2774.91	23
2775.78	20
2776.65	22.5
2777.51	25
2778.38	23.5
2779.25	27.5
2780.12	27
2780.99	26
2781.86	25
2782.73	27.5
2783.59	25
2784.46	23.5
2785.33	25.5
2786.2	26.5
2787.07	24.5
2787.93	26
2788.8	28.5
2789.67	27
2790.54	22
2791.4	25.5
2792.27	24.5
2793.14	26
2794	25.5
2794.87	22.5
2795.74	26
2796.6	24.5
2797.47	24
2798.34	23
2799.2	27.5
2800.07	25.5
2800.93	26.25
2801.8	27
2802.66	25.5
2803.53	23
2804.39	25.5
2805.26	27
2806.12	27.5
2806.99	26.5
2807.85	24.5
2808.72	27
2809.58	27.5
2810.45	22.5
2811.31	21
2812.18	26.5
2813.04	22
2813.9	27
2814.77	25.5
2815.63	26
2816.49	22
2817.36	25
2818.22	27.5
2819.08	27
2819.95	25
2820.81	26
2821.67	23
2822.53	24.5
2823.4	25
2824.26	27.5
2825.12	24.5
2825.98	23.5
2826.84	25.5
2827.71	23.5
2828.57	27
2829.43	26
2830.29	23.5
2831.15	26
2832.01	24
2832.88	22
2833.74	26
2834.6	28.5
2835.46	28
2836.32	27
2837.18	26
2838.04	26.5
2838.9	24
2839.76	23
2840.62	24
2841.48	26
2842.34	26
2843.2	24.5
2844.06	28
2844.92	23.5
2845.78	24.5
2846.63	29
2847.49	26.5
2848.35	26.5
2849.21	26
2850.07	31
2850.93	24.5
2851.79	25.5
2852.64	25.5
2853.5	28.5
2854.36	25
2855.22	25
2856.08	25
2856.93	26.5
2857.79	26
2858.65	27
2859.51	23
2860.36	19.5
2861.22	24
2862.08	23.5
2862.93	24.5
2863.79	32.5
2864.65	24.5
2865.5	24
2866.36	24
2867.22	25.5
2868.07	27
2868.93	27
2869.78	29.5
2870.64	32
2871.49	30
2872.35	25
2873.21	29
2874.06	26.5
2874.91	29
2875.77	29.5
2876.62	29
2877.48	29
2878.33	27.5
2879.19	30.5
2880.04	33
2880.9	28
2881.75	30.5
2882.6	31.5
2883.46	32
2884.31	34.5
2885.17	31.5
2886.02	28.5
2886.87	30
2887.73	31
2888.58	34
2889.43	36.5
2890.28	34
2891.14	39.5
2891.99	38
2892.84	38.5
2893.69	39
2894.55	41
2895.4	40.5
2896.25	45.5
2897.1	49
2897.95	47.5
2898.8	52
2899.66	51
2900.51	56.5
2901.36	57.5
2902.21	62
2903.06	60.5
2903.91	65.5
2904.76	62.5
2905.61	65
2906.46	59.5
2907.31	61.5
2908.16	59.5
2909.01	58
2909.86	56.5
2910.71	54.5
2911.56	60
2912.41	53.5
2913.26	49
2914.11	47.5
2914.96	44.5
2915.81	42.5
2916.66	40
2917.51	34.5
2918.36	36
2919.2	38
2920.05	35.5
2920.9	31.5
2921.75	34.5
2922.6	31
2923.45	32
2924.29	27.5
2925.14	36
2925.99	28.5
2926.84	31.5
2927.68	29
2928.53	27
2929.38	29
2930.23	26
2931.07	27
2931.92	27
2932.77	26.5
2933.61	26.5
2934.46	27.5
2935.3	30.5
2936.15	25.5
2937	28
2937.84	29.5
2938.69	26
2939.53	27.5
2940.38	29.5
2941.23	24
2942.07	25.5
2942.92	28
2943.76	27.5
2944.61	27.5
2945.45	30
2946.3	24.5
2947.14	29.5
2947.98	28
2948.83	30.5
2949.67	31
2950.52	27
2951.36	29
2952.2	33.5
2953.05	31.5
2953.89	32.5
2954.74	27.5
2955.58	30
2956.42	32.5
2957.27	32
2958.11	32
2958.95	36
2959.79	40.5
2960.64	38
2961.48	41
2962.32	38
2963.16	40
2964.01	42
2964.85	44.5
2965.69	41
2966.53	42
2967.37	38.5
2968.21	37
2969.06	40
2969.9	34.5
2970.74	35.5
2971.58	36.466
2972.42	33.4417
2973.26	35.3988
2974.1	32.0602
2974.94	32.4471
2975.78	29.4361
2976.62	33.5932
2977.46	31.241
2978.3	30.0753
2979.14	28.9544
2979.98	28.1067
2980.82	26.8586
2981.66	26.0315
2982.5	28.4819
2983.34	26.9014
2984.18	26.4453
2985.02	29.2307
2985.86	24.6551
2986.7	24.4029
2987.54	26.5
2988.38	27.8645
2989.21	21.8467
2990.05	27.4119
2990.89	25.3562
2991.73	22.7834
2992.57	26.185
2993.41	22.7236
2994.24	24.4833
2995.08	23.9809
2995.92	25.2347
2996.76	26.2927
2997.59	24.1972
2998.43	29.0208
2999.27	23.1218
3000.1	24.5791
3000.94	23.7584
3001.78	26.267
3002.61	21.7961
3003.45	24.8969
3004.29	24.3835
3005.12	25.2089
3005.96	21.0073
3006.8	22.9312
3007.63	24.7057
3008.47	26.1524
3009.3	24.0565
3010.14	25.5199
3010.97	24.6141
3011.81	22.6979
3012.64	22.9388
3013.48	23.1712
3014.31	22.654
3015.15	24.6593
3015.98	20.3524
3016.82	22.4185
3017.65	23.3722
3018.49	21.2271
3019.32	22.8465
3020.16	22.2451
3020.99	23.1765
3021.82	22.497
3022.66	22.4858
3023.49	21.7215
3024.32	24
3025.16	21.3653
3025.99	22.5419
3026.82	19.744
3027.66	23.0378
3028.49	23.8325
3029.32	24.4266
3030.16	23.3515
3030.99	25.1001
3031.82	20.9432
3032.65	19.7875
3033.49	23.0973
3034.32	22.8732
3035.15	20.1213
3035.98	20.2427
3036.81	22.2372
3037.64	22.805
3038.48	22.0489
3039.31	20.536
3040.14	22.5058
3040.97	26.073
3041.8	22.0612
3042.63	21.8144
3043.46	23.2444
3044.29	22.3884
3045.12	24.3686
3045.95	25.9557
3046.78	24.4823
3047.61	22.5829
3048.44	22.5714
3049.27	23.7146
3050.1	23.3762
3050.93	23.1881
3051.76	21.1571
3052.59	22.689
3053.42	27.0719
3054.25	24.0204
3055.08	22.1402
3055.91	22.1312
3056.74	20.5665
3057.26	19
3058.09	23.5
3058.92	25
3059.76	23
3060.59	21
3061.42	21
3062.26	21.5
3063.09	16.5
3063.92	24.5
3064.75	26.5
3065.59	21
3066.42	20.5
3067.25	25
3068.08	24.5
3068.91	21
3069.74	22
3070.58	20
3071.41	23
3072.24	21.5
3073.07	23.5
3073.9	21
3074.73	23
3075.56	25
3076.39	19
3077.22	21
3078.05	23.5
3078.88	20
3079.71	24
3080.55	22
3081.38	23.5
3082.2	28
3083.03	24.5
3083.86	20.5
3084.69	21
3085.52	24.5
3086.35	24
3087.18	22
3088.01	24
3088.84	21
3089.67	20
3090.5	22
3091.33	24.5
3092.15	24
3092.98	23
3093.81	25.5
3094.64	25
3095.47	20.5
3096.29	22.5
3097.12	21
3097.95	25
3098.78	22
3099.6	24
3100.43	20.5
3101.26	21
3102.09	24
3102.91	25.5
3103.74	22
3104.57	22
3105.39	21.5
3106.22	24.5
3107.05	20.5
3107.87	23
3108.7	21
3109.52	20.5
3110.35	24
3111.18	19.5
3112	23
3112.83	24
3113.65	22.5
3114.48	22
3115.3	26
3116.13	25
3116.95	24
3117.78	22
3118.6	24
3119.43	22
3120.25	25
3121.08	24
3121.9	22.5
3122.73	22.5
3123.55	22
3124.37	22.5
3125.2	24
3126.02	25.5
3126.84	24
3127.67	20
3128.49	20
3129.31	24.5
3130.14	21
3130.96	25
3131.78	24
3132.61	25.5
3133.43	22.5
3134.25	25.5
3135.07	26
3135.9	18.5
3136.72	26
3137.54	24
3138.36	24.5
3139.18	20
3140.01	20.5
3140.83	24
3141.65	26
3142.47	22.5
3143.29	21
3144.11	20
3144.93	24
3145.75	23
3146.58	21.5
3147.4	23.5
3148.22	24.5
3149.04	22
3149.86	25.5
3150.68	23.5
3151.5	21.5
3152.32	24
3153.14	21
3153.96	22
3154.78	23.5
3155.6	24
3156.42	20
3157.23	26
3158.05	22.5
3158.87	22.5
3159.69	22.5
3160.51	16.5
3161.33	22
3162.15	23
3162.97	20
3163.79	23.5
3164.6	20
3165.42	19
3166.24	26
3167.06	22
3167.88	21.5
3168.69	21.5
3169.51	21
3170.33	25
3171.15	22
3171.96	25
3172.78	21
3173.6	22
3174.41	21.5
3175.23	23.5
3176.05	22
3176.86	22.5
3177.68	21.5
3178.5	23
3179.31	20
3180.13	22
3180.95	20.5
3181.76	26
3182.58	24.5
3183.39	23.5
3184.21	26
3185.02	24.5
3185.84	24.5
3186.65	21.5
3187.47	21
3188.28	25.5
3189.1	24.5
3189.91	20.5
3190.73	24.5
3191.54	25.5
3192.36	21.5
3193.17	21
3193.99	22.5
3194.8	18.5
3195.61	25.5
3196.43	21
3197.24	26.5
3198.05	22
3198.87	23.5
3199.68	24
3200.49	24
3201.31	23.5
3202.12	26
3202.93	22.5
3203.75	25.5
3204.56	30.5
3205.37	24
3206.18	22.5
3207	23.5
3207.81	26
3208.62	27.5
3209.43	23
3210.24	23
3211.06	19.5
3211.87	21.5
3212.68	25
3213.49	21.5
3214.3	22.5
3215.11	24
3215.92	24.5
3216.74	23
3217.55	25
3218.36	21
3219.17	23
3219.98	24
3220.79	26
3221.6	24
3222.41	26
3223.22	25
3224.03	28
3224.84	22
3225.65	21.5
3226.46	23.5
3227.27	23
3228.08	23
3228.89	16.5
3229.7	26.5
3230.5	25
3231.31	24
3232.12	23.5
3232.93	21
3233.74	26
3234.55	25.5
3235.36	22
3236.16	23
3236.97	21.5
3237.78	23
3238.59	26.5
3239.4	24
3240.2	21.5
3241.01	24.5
3241.82	20.5
3242.63	23
3243.43	25.5
3244.24	23.5
3245.05	23.5
3245.86	23
3246.66	23.5
3247.47	22.5
3248.28	22.5
3249.08	25.5
3249.89	22.5
3250.69	24.5
3251.5	20
3252.31	24.5
3253.11	23
3253.92	23.5
3254.72	24
3255.53	26
3256.34	25.5
3257.14	23
3257.95	26
3258.75	22.5
3259.56	21
3260.36	26
3261.17	22
3261.97	24
3262.77	23
3263.58	23
3264.38	22
3265.19	25
3265.99	25.5
3266.8	22.5
3267.6	22
3268.4	23.5
3269.21	25
3270.01	19
3270.81	22.5
3271.62	27
3272.42	25
3273.22	24.5
3274.03	23.5
3274.83	29
3275.63	26
3276.43	21.5
3277.24	19
3278.04	25
3278.84	24
3279.64	21
3280.45	24
3281.25	21
3282.05	20.5
3282.85	26
3283.65	22
3284.46	24.5
3285.26	20
3286.06	22.5
3286.86	22.5
3287.66	24
3288.46	22
3289.26	21.5
3290.06	25.5
3290.86	24
3291.66	23
3292.46	25.5
3293.26	23.5
3294.06	22.5
3294.86	24.5
3295.66	22
3296.46	24
3297.26	22.5
3298.06	20.5
3298.86	21
3299.66	22.5
3300.46	25.5
3301.26	22.5
3302.06	24
3302.86	22
3303.66	25.5
3304.46	23.5
3305.26	24
3306.05	24
3306.85	24
3307.65	23
3308.45	23
3309.25	25
3310.04	25.5
3310.84	23
3311.64	24
3312.44	22.5
3313.24	21.5
3314.03	22
3314.83	25.5
3315.63	22.5
3316.42	24.5
3317.22	25
3318.02	23
3318.82	23
3319.61	29
3320.41	26
3321.2	24
3322	25.5
3322.8	21
3323.59	25
3324.39	19
3325.19	25
3325.98	20.5
3326.78	27.5
3327.57	25
3328.37	21
3329.16	25.5
3329.96	26.5
3330.75	24
3331.55	23
3332.34	21.5
3333.14	23
3333.93	24
3334.73	23.5
3335.52	23.5
3336.32	24.5
3337.11	25
3337.9	24
3338.7	27
3339.49	26
3340.29	25
3341.08	21
3341.87	22.5
3342.67	18
3343.46	21
3344.25	29
3345.05	23
3345.84	24.5
3346.63	27
3347.42	23
3348.22	24.5
3349.01	26
3349.8	23
3350.59	19
3351.39	21.5
3352.18	27
3352.97	23.5
3353.76	25
3354.55	26
3355.35	24.5
3356.14	27
3356.93	18.5
3357.72	25.5
3358.51	24.5
3359.3	21.5
3360.09	23
3360.88	24.5
3361.67	21
3362.47	22
3363.26	24
3364.05	25
3364.84	25.5
3365.63	24
3366.42	23.5
3367.21	24.5
3368	21
3368.79	27
3369.58	20
3370.37	24
3371.16	25
3371.95	27
3372.73	27
3373.52	20.5
3374.31	23
3375.1	25.5
3375.89	23
3376.68	23
3377.47	27
3378.26	28
3379.04	26.5
3379.83	23.5
3380.62	25
3381.41	28
3382.2	25.5
3382.98	24
3383.77	22
3384.56	26.5
3385.35	22
3386.14	24
3386.92	25.5
3387.71	23
3388.5	22.5
3389.28	20
3390.07	22.5
3390.86	25
3391.64	22.5
3392.43	22.5
3393.22	22.5
3394	26
3394.79	27
3395.58	24
3396.36	25.5
3397.15	24.5
3397.93	19.5
3398.72	23.5
3399.5	23
3400.29	24
3401.07	21.5
3401.86	23.5
3402.65	24
3403.43	24.5
3404.22	25
3405	27
3405.79	25
3406.57	23.5
3407.35	22
3408.14	26
3408.92	24
3409.71	22
3410.49	20
3411.27	27
3412.06	27
3412.84	23
3413.63	25.5
3414.41	26
3415.19	24.5
3415.98	24
3416.76	26.5
3417.54	25.5
3418.32	24.5
3419.11	24.5
3419.89	23.5
3420.67	26
3421.46	26
3422.24	25
3423.02	22
3423.8	24
3424.58	28
3425.37	27
3426.15	23.5
3426.93	22
3427.71	25.5
3428.49	25
3429.27	22
3430.06	19.5
3430.84	26
3431.62	23.5
3432.4	26
3433.18	24.5
3433.96	24
3434.74	24
3435.52	21
3436.3	22.5
3437.08	30
3437.86	25.5
3438.64	23
3439.42	28
3440.2	22.5
3440.98	22.5
3441.76	26
3442.54	26
3443.32	22
3444.1	24
3444.88	23
3445.66	23.5
3446.44	26
3447.22	23.5
3448	21
3448.78	20.5
3449.55	24.5
3450.33	25
3451.11	25.5
3451.89	25
3452.67	26.5
3453.45	24
3454.22	24
3455	22.5
3455.78	25
3456.56	22.5
3457.33	24.5
3458.11	26.5
3458.89	24.5
3459.67	24.5
3460.44	23
3461.22	25.5
3462	25.5
3462.77	24.5
3463.55	23.5
3464.33	26
3465.1	26.5
3465.88	23.5
3466.66	21
3467.43	24
3468.21	20
3468.99	24
3469.76	27.5
3470.54	23.5
3471.31	24.5
3472.09	24.5
3472.86	28.5
3473.64	23
3474.41	24.5
3475.19	26
3475.96	25
3476.74	26.5
3477.51	24
3478.29	22
3479.06	29
3479.84	22
3480.61	22
3481.39	24
3482.16	22
3482.93	18.5
3483.71	26
3484.48	24
3485.26	23
3486.03	22.5
3486.8	27
3487.58	23.5
3488.35	27
3489.12	19.5
3489.9	26
3490.67	23
3491.44	24
3492.21	25
3492.99	20.5
3493.76	23
3494.53	23.5
3495.3	24
3496.08	22
3496.85	23.5
3497.62	26
3498.39	25
3499.16	27
3499.94	22
