#Acq. time (s)=	5
#Accumulations=	5
#Range (cm-¹)=	100...3500
#Windows=	4
#Autofocus=	Off
#AutoExposure=	Off
#Spike filter=	Multiple accum.
#Delay time (s)=	0
#Binning=	1
#Readout mode=	Signal
#DeNoise=	Off
#ICS correction=	Off
#Dark correction=	Off
#Inst. Process=	Off
#Instrument=	LabRAM HR Evol
#Detector=	Syncerity OE
#Objective=	x100_VIS
#Grating=	600 (500nm)
#ND Filter=	25%
#Laser=	633nm_Edge
#Hole=	100.021
#Range=	Visible
#Project=	verificaciones
#Sample=	a3
#Site=	plain
#Title=	bolusa3plain
#Remark=	
#Date=	12.01.2026 15:44
#Acquired=	12.01.2026 15:44:09
100.666	30
101.95	34
103.233	34
104.516	30.5
105.799	32
107.083	31.5
108.365	29
109.648	27
110.93	26.5
112.212	29
113.493	28
114.775	27.5
116.056	30
117.337	30
118.618	33
119.898	27.5
121.178	29.5
122.459	33.5
123.739	29.5
125.018	31.5
126.298	29
127.577	32.5
128.856	28.5
130.135	34
131.414	33
132.692	33.5
133.971	36.5
135.249	32
136.525	32.5
137.803	32
139.08	36
140.357	29
141.634	32
142.911	39.5
144.188	35.5
145.464	35
146.74	37
148.015	33.5
149.291	36.5
150.566	36.5
151.842	40
153.117	39
154.392	39
155.665	38
156.939	39.5
158.214	35.5
159.488	34.5
160.76	39.5
162.034	34.5
163.307	40.5
164.581	36
165.854	33
167.125	38.5
168.398	37
169.67	41.5
170.941	37.5
172.213	35.5
173.485	34
174.756	37.5
176.026	36.5
177.298	41
178.569	35.5
179.838	38
181.109	37
182.379	37
183.648	38
184.918	42.5
186.187	36.5
187.455	39
188.725	39.5
189.992	44
191.261	37.5
192.53	39
193.797	37.5
195.065	40.5
196.332	37
197.6	39
198.866	38
200.134	40
201.401	37.5
202.667	40
203.933	38.5
205.199	35.5
206.465	34
207.73	42.5
208.996	37
210.26	34.5
211.526	37
212.79	32
214.055	35
215.319	29.5
216.582	32.5
217.847	36.5
219.11	31
220.374	31
221.636	29
222.9	33
224.162	29.5
225.424	28
226.687	29.5
227.949	25
229.212	29
230.473	26
231.734	32
232.996	31.5
234.256	28
235.517	30
236.778	32
238.038	27.5
239.298	30
240.559	28
241.818	30.5
243.077	34
244.337	29
245.596	29
246.854	33
248.113	28
249.372	28
250.63	28
251.887	30.5
253.145	30.5
254.404	26
255.661	26
256.917	28.5
258.174	27.5
259.432	32
260.688	28.5
261.944	29.5
263.2	27.5
264.456	29.5
265.711	25.5
266.968	30
268.223	23.5
269.477	27.5
270.732	28
271.986	27.5
273.24	32
274.494	29.5
275.748	28
277.003	27
278.257	28
279.51	28
280.763	31
282.015	25
283.268	31.5
284.52	29.5
285.773	28
287.024	30.5
288.276	26.5
289.528	28.5
290.779	27.5
292.03	31
293.281	25.5
294.532	28
295.782	29
297.033	25
298.283	29
299.533	29
300.783	26.5
302.032	29.5
303.281	25
304.531	29.5
305.78	27.5
307.028	32
308.275	26.5
309.524	29
310.772	24.5
312.02	28
313.267	21
314.515	26
315.762	26.5
317.009	28
318.255	26
319.501	27
320.748	27.5
321.994	29
323.24	27
324.486	30
325.731	25
326.976	27
328.221	25.5
329.466	28.5
330.71	27
331.955	28
333.199	24
334.443	26
335.686	27
336.93	27.5
338.174	28.5
339.417	30.5
340.659	29.5
341.902	28.5
343.145	28.5
344.386	28
345.629	24.5
346.871	29
348.112	25.5
349.354	28
350.595	27
351.836	32
353.077	30.5
354.318	30
355.557	31.5
356.798	29.5
358.037	30
359.277	27
360.518	25
361.756	25.5
362.996	28
364.234	25
365.473	27.5
366.711	28
367.95	31
369.187	22
370.426	30
371.662	32.5
372.901	29
374.137	27.5
375.375	29.5
376.611	28
377.848	28
379.084	30.5
380.321	23
381.556	29
382.793	28.5
384.027	21
385.264	29
386.498	24.5
387.732	28.5
388.968	26.5
390.202	25
391.437	29.5
392.671	22.5
393.904	28
395.138	24
396.371	26
397.604	27
398.838	25.5
400.07	26
401.302	27.5
402.536	28.5
403.768	31.5
404.999	29
406.232	31.5
407.463	26
408.694	30
409.925	26.5
411.157	27
412.387	28.5
413.617	28
414.847	27.5
416.078	29
417.308	25.5
418.537	25.5
419.767	27
420.997	27
422.226	29
423.454	26.5
424.683	29.5
425.911	24
427.139	25
428.368	29
429.596	26
430.823	28
432.05	31
433.277	25
434.504	30.5
435.731	28.5
436.957	28.5
438.185	26
439.411	28
440.637	25
441.862	29
443.088	24
444.313	27.5
445.538	26
446.763	25
447.988	29
449.212	30
450.436	31
451.661	31
452.884	26
454.108	26.5
455.332	34.5
456.555	30
457.778	25
459.001	27
460.224	32
461.446	26.5
462.668	27
463.891	31
465.111	29.5
466.333	30
467.554	34.5
468.776	35.5
469.997	36
471.218	33.5
472.439	36.5
473.659	32.5
474.878	39
476.098	36.5
477.318	37.5
478.538	42
479.758	39.5
480.977	48
482.195	45
483.414	48
484.633	54.5
485.851	54
487.07	54.5
488.287	53.5
489.505	53
490.723	58
491.94	50
493.156	52
494.374	48
495.591	49.5
496.806	49
498.023	42
499.239	46
500.456	39
501.67	43
502.886	38.5
504.102	35.5
505.316	39.5
506.531	34.5
507.745	36
508.96	35.5
510.175	31.5
511.388	33
512.602	34
513.815	36
515.029	35
516.243	30
517.455	29
518.669	26
519.88	34
521.093	31.5
522.305	30
523.518	30
524.729	33
525.941	32
527.151	29
528.363	29
529.574	32.5
530.785	32.5
531.995	33.5
533.206	25
534.416	27
535.626	27
536.835	25.5
538.046	33
539.254	27.5
540.463	30.5
541.673	26
542.881	28.5
544.09	32
545.298	26.5
546.506	33
547.714	26.5
548.922	27.5
550.13	26.5
551.337	30.5
552.544	28
553.751	24
554.958	27
556.164	27
557.37	24
558.577	31.5
559.782	27
560.987	26
562.194	26.5
563.399	26
564.604	30
565.808	31
567.014	30
568.218	27
569.422	29
570.626	28
571.829	30
573.034	22
574.237	28
575.44	29.5
576.643	25.5
577.846	27
579.048	28.5
580.252	29.5
581.454	27.5
582.656	28.5
583.857	27
585.059	28
586.26	28
587.461	27
588.662	28
589.863	30
591.065	25.5
592.265	21
593.465	27
594.665	26
595.865	27
597.065	26.5
598.264	27
599.463	27.5
600.662	29
601.861	27
603.06	31.5
604.258	30.5
605.457	27
606.655	32
607.853	28.5
609.05	29
610.248	30.5
611.444	28.5
612.641	29.5
613.838	27
615.034	26
616.231	27
617.427	28.5
618.624	28
619.82	26.5
621.015	27
622.21	27
623.405	25.5
624.6	30.5
625.795	23.5
626.99	28
628.185	28
629.378	29.5
630.572	27
631.766	32.5
632.96	30.5
634.154	29
635.346	28
636.54	25.5
637.733	27.5
638.926	31
640.117	25
641.31	31.5
642.502	30
643.693	30
644.885	30
646.077	29
647.267	27
648.459	31
649.65	31.5
650.84	30
652.031	24
653.222	24.5
654.411	29.5
655.601	29.5
656.791	29.5
657.98	25
659.17	28.5
660.358	30
661.547	28.5
662.737	32.5
663.924	28.5
665.113	34
666.3	30
667.489	27
668.676	28.5
669.864	27
671.05	31
672.238	34.5
673.424	27
674.612	29
675.798	33
676.985	32
678.17	32.5
679.357	34.5
680.542	36.5
681.728	29.5
682.913	33
684.097	32
685.283	32.5
686.467	31
687.652	36.5
688.836	33
690.02	32
691.205	31.5
692.388	32.5
693.571	36
694.755	32.5
695.938	34.5
697.12	33.5
698.304	37
699.486	37
700.668	35.5
701.851	37
703.032	39.5
704.214	39.5
705.395	45.5
706.577	48
707.758	50.5
708.939	48
710.119	50.5
711.301	39.5
712.481	38.5
713.661	37
714.84	34.5
716.02	38
717.201	30
718.38	32.5
719.559	30.5
720.737	25
721.916	31.5
723.094	33.5
724.274	29
725.452	30.5
726.63	29
727.808	27.5
728.985	27
730.162	29
731.339	25
732.516	27
733.693	24
734.87	28
736.046	22.5
737.222	26
738.398	28.5
739.574	28
740.75	24.5
741.925	30
743.1	27.5
744.276	28.5
745.45	31.5
746.625	29
747.8	31.5
748.974	30.5
750.148	27
751.322	31
752.496	28.5
753.67	28.5
754.843	31
756.016	31
757.189	32.5
758.362	25.5
759.534	24.5
760.706	27.5
761.878	26.5
763.051	26
764.223	27.5
765.394	32
766.565	29
767.736	26.5
768.907	28
770.078	26
771.249	29.5
772.419	34
773.589	27
774.759	27.5
775.93	28
777.098	25
778.268	31.5
779.438	24
780.607	30.5
781.775	31
782.944	33.5
784.113	30
785.28	33.5
786.449	29.5
787.617	29
788.784	29
789.952	29.5
791.12	29.5
792.286	27.5
793.453	27
794.62	29.5
795.786	28.5
796.953	30.5
798.118	30
799.285	26.5
800.45	25
801.616	27
802.782	31.5
803.946	25
805.112	31.5
806.276	28.5
807.441	25.5
808.605	26
809.77	31
810.933	31.5
812.098	24
813.261	29
814.425	28
815.588	30.5
816.75	27.5
817.914	27
819.076	30
820.239	27
821.401	24
822.564	25.5
823.725	26
824.886	28
826.048	27.5
827.209	31.5
828.37	27.5
829.532	27.5
830.692	23
831.852	27
833.013	25
834.173	27
835.333	23.5
836.493	28.5
837.653	28
838.812	27
839.972	27
841.13	28
842.289	24
843.447	29
844.607	28.5
845.765	30
846.922	30.5
848.08	28.5
849.237	30.5
850.396	31
851.553	28
852.71	27
853.867	28
855.023	27
856.179	27
857.337	28.5
858.493	30.5
859.649	30
860.804	30
861.96	31
863.115	30.5
864.27	23
865.425	26
866.58	24.5
867.734	26
868.888	27.5
870.043	26.5
871.197	30
872.35	29
873.504	25
874.658	29.5
875.811	31.5
876.964	26.5
878.117	24
879.27	23.5
880.422	31
881.575	29
882.727	27
883.879	27
885.031	29
886.182	32
887.334	27.5
888.485	26.5
889.636	27
890.787	25.5
891.937	26
893.088	27
894.238	25
895.388	28
896.538	26.5
897.688	28
898.837	27
899.986	27.5
901.136	30
902.285	24
903.434	25
904.581	27
905.73	26.5
906.878	24
908.027	27
909.174	26
910.321	24
911.469	25
912.617	24.5
913.763	26
914.91	26
916.057	28
917.203	24
918.35	24
919.496	26.5
920.641	28
921.787	26
922.933	29.5
924.078	30
925.224	27
926.368	26.5
927.513	27.5
928.658	23
929.802	23
930.946	23
932.09	25
933.234	31
934.377	28.5
935.521	24
936.664	23
937.807	27
938.95	23.5
940.093	32
941.235	27
942.378	23.5
943.519	24.5
944.662	26.5
945.803	27.5
946.946	29
948.086	29
949.227	27
950.369	27.5
951.509	26.5
952.651	26.5
953.79	28
954.93	24.5
956.071	26
957.211	25
958.35	25
959.49	25.5
960.629	29
961.768	23
962.908	26
964.046	24
965.184	28.5
966.323	26
967.461	27.5
968.599	24.5
969.736	24.5
970.875	26.5
972.012	27
973.149	23
974.286	26
975.424	28
976.56	23.5
977.697	27.5
978.833	30
979.969	26.5
981.104	28
982.241	26.5
983.377	27.5
984.512	23.5
985.647	27
986.782	25
987.916	24.5
989.051	25.5
990.185	30
991.321	25
992.455	26
993.589	31
994.722	30
995.856	27
996.989	23
998.122	28.5
999.255	27
1000.39	28.5
1001.52	21
1002.65	26
1003.79	25
1004.92	27
1006.05	25.5
1007.18	27.5
1008.31	33
1009.44	25
1010.57	27
1011.7	27.5
1012.84	25.5
1013.97	24
1015.1	30
1016.23	25
1017.36	23.5
1018.49	30
1019.62	26.5
1020.75	23.5
1021.88	22
1023	26.5
1024.13	24.5
1025.26	24
1026.39	24
1027.52	25
1028.65	24
1029.78	24
1030.9	24
1032.03	25.5
1033.16	22.5
1034.29	28.5
1035.41	26
1036.54	27.5
1037.67	24
1038.79	24
1039.92	24
1041.04	23
1042.17	30
1043.3	26.5
1044.42	26
1045.55	25.5
1046.67	24
1047.8	27
1048.92	21.5
1050.05	28.5
1051.17	27.5
1052.3	25
1053.42	23
1054.54	26.5
1055.67	28
1056.79	26
1057.91	23
1059.04	24
1060.16	25.5
1061.28	27.5
1062.41	25.5
1063.53	23
1064.65	24
1065.77	24
1066.9	25.5
1068.02	21
1069.14	24.5
1070.26	18
1071.38	27.5
1072.5	26
1073.62	21
1074.74	27.5
1075.86	23
1076.98	27.5
1078.1	27
1079.22	22.5
1080.34	23
1081.46	26
1082.58	27.5
1083.7	25.5
1084.82	27
1085.94	24
1087.06	26
1088.18	28.5
1089.29	23.5
1090.41	25.5
1091.53	25.5
1092.65	24
1093.77	23.5
1094.88	22.5
1096	24.5
1097.12	26
1098.23	23.5
1099.35	21
1100.47	24
1101.58	21
1102.7	25
1103.82	27.5
1104.93	25.5
1106.05	24
1107.16	25
1108.28	22.5
1109.39	28
1110.51	26
1111.62	24
1112.74	26
1113.85	25
1114.96	26.5
1116.08	25.5
1117.19	21.5
1118.31	26.5
1119.42	24
1120.53	23.5
1121.65	27
1122.76	25.5
1123.87	26.5
1124.98	27.5
1126.1	26.5
1127.21	25
1128.32	25
1129.43	23.5
1130.54	26.5
1131.65	25
1132.76	25
1133.88	25.5
1134.99	23.5
1136.1	25
1137.21	23
1138.32	24.5
1139.43	24.5
1140.54	26.5
1141.65	26.5
1142.76	24
1143.87	23.5
1144.98	25
1146.08	25
1147.19	21.5
1148.3	25
1149.41	19
1150.52	25
1151.63	27
1152.73	20
1153.84	22
1154.95	23
1156.06	27
1157.17	27
1158.27	25
1159.38	25
1160.49	26
1161.59	23.5
1162.7	23
1163.8	28
1164.91	26.5
1166.02	26
1167.12	24
1168.23	25
1169.33	27
1170.44	21.5
1171.54	21
1172.65	23.5
1173.75	23.5
1174.86	23.5
1175.96	24.5
1177.06	25
1178.17	21
1179.27	29.5
1180.37	24
1181.48	24
1182.58	26
1183.68	21.5
1184.79	28.5
1185.89	26
1186.99	26
1188.09	23.5
1189.2	23.5
1190.3	21.5
1191.4	26
1192.5	22.5
1193.6	25
1194.7	20.5145
1195.8	23.9724
1196.9	25.9827
1198.01	22.2012
1199.11	23.5792
1200.21	24.0462
1201.31	20.3763
1202.41	20.2802
1203.5	23.6511
1204.6	24.0235
1205.7	22.0938
1206.8	23.3797
1207.9	26.4477
1209	28.8723
1210.1	25.6566
1211.2	26.4937
1212.3	23.4408
1213.39	24.4471
1214.49	22.2077
1215.59	25.8107
1216.69	22.508
1217.78	25.0458
1218.88	26.1164
1219.98	26.0725
1221.08	23.7985
1222.17	24.9673
1223.27	23.5
1224.37	24.2014
1225.46	23.4365
1226.56	25.7522
1227.65	23.9655
1228.75	25.6672
1229.84	25.5363
1230.94	25.2232
1232.03	23.3125
1233.13	22.5
1234.22	23.8155
1235.32	24.4946
1236.41	21.8221
1237.51	23.6582
1238.6	25.5838
1239.69	24.5958
1240.79	23.8058
1241.88	25.6099
1242.97	23.3015
1244.07	24.9011
1245.16	24.3912
1246.25	25.5858
1247.35	25.2831
1248.44	25.8765
1249.53	21.8487
1250.62	25.1087
1251.71	25.0518
1252.81	24.8057
1253.9	24.0069
1254.99	24.56
1256.08	23.5616
1257.17	25.1976
1258.26	26.8044
1259.35	24.0216
1260.44	28.4438
1261.53	24.6371
1262.62	26.164
1263.71	25.6828
1264.8	25.8773
1265.89	26.135
1266.98	22.7255
1268.07	23.0678
1269.16	25.4306
1270.25	23.664
1271.34	23.6342
1272.43	23.4942
1273.52	23.3691
1274.6	23.3847
1275.69	24.561
1276.78	23.3248
1277.87	24.3409
1278.95	24.5573
1280.04	25.5036
1281.13	20.5791
1282.22	21.8348
1283.3	22.8568
1284.39	24.5196
1285.48	25.6214
1286.56	24.5082
1287.65	26.1427
1288.73	25.1854
1289.82	24.4248
1290.91	25.6473
1291.99	23.7807
1293.08	22.8786
1294.16	23.7918
1295.24	22.2923
1296.33	23.2161
1297.41	26.0651
1298.5	27.1276
1299.58	25.5438
1300.67	23.5796
1301.75	26.1682
1302.83	25.3973
1303.92	21.2462
1305	21.8225
1306.08	22.8443
1306.4	23
1307.49	23.5
1308.58	24.5
1309.66	25
1310.75	27.5
1311.84	20.5
1312.93	26
1314.01	25.5
1315.1	20
1316.19	29.5
1317.27	25.5
1318.36	25
1319.45	26
1320.53	29.5
1321.62	26
1322.71	22
1323.79	25.5
1324.88	22
1325.96	22
1327.05	22
1328.13	23.5
1329.22	27
1330.3	26.5
1331.39	23.5
1332.47	17.5
1333.55	22.5
1334.64	22
1335.72	26
1336.81	23
1337.89	27
1338.97	26.5
1340.06	26
1341.14	25
1342.22	22
1343.3	24.5
1344.39	27
1345.47	21
1346.55	19
1347.63	22.5
1348.71	25
1349.8	26.5
1350.88	27
1351.96	24
1353.04	26.5
1354.12	26
1355.2	27
1356.28	23
1357.36	27
1358.44	24.5
1359.52	23
1360.6	21.5
1361.68	26
1362.76	27
1363.84	22.5
1364.92	20.5
1366	25.5
1367.08	26
1368.16	25
1369.23	25
1370.31	26.5
1371.39	23.5
1372.47	24
1373.55	25.5
1374.62	21.5
1375.7	23.5
1376.78	29
1377.86	26.5
1378.93	29
1380.01	26
1381.09	22.5
1382.16	25
1383.24	27
1384.32	22.5
1385.39	26.5
1386.47	25
1387.54	25
1388.62	27.5
1389.69	26.5
1390.77	22.5
1391.84	24
1392.92	25
1393.99	26.5
1395.07	26.5
1396.14	32
1397.21	24.5
1398.29	27
1399.36	27.5
1400.44	27
1401.51	27
1402.58	30.5
1403.66	26.5
1404.73	30
1405.8	31.5
1406.87	28
1407.95	29
1409.02	27.5
1410.09	34
1411.16	30.5
1412.23	28
1413.3	29
1414.38	35.5
1415.45	31.5
1416.52	25
1417.59	32
1418.66	26
1419.73	29.5
1420.8	30
1421.87	29.5
1422.94	23.5
1424.01	25.5
1425.08	24.5
1426.15	26
1427.22	26
1428.29	32
1429.36	28.5
1430.43	25.5
1431.49	24
1432.56	28.5
1433.63	23
1434.7	23
1435.77	24.5
1436.83	23.5
1437.9	25
1438.97	23
1440.04	27
1441.1	27.5
1442.17	24
1443.24	23
1444.3	25.5
1445.37	19
1446.44	25
1447.5	28
1448.57	26
1449.63	23
1450.7	26.5
1451.77	24.5
1452.83	25
1453.9	25
1454.96	24.5
1456.03	26
1457.09	25.5
1458.15	26
1459.22	27.5
1460.28	26
1461.35	24
1462.41	26
1463.47	23
1464.54	24
1465.6	24
1466.66	26.5
1467.73	25.5
1468.79	24
1469.85	25
1470.91	26.5
1471.98	27.5
1473.04	25
1474.1	27
1475.16	21
1476.22	22
1477.28	25
1478.35	26.5
1479.41	24
1480.47	26
1481.53	27
1482.59	23
1483.65	22.5
1484.71	26
1485.77	24.5
1486.83	24.5
1487.89	27.5
1488.95	28
1490.01	26
1491.07	25.5
1492.13	24.5
1493.18	30.5
1494.24	26
1495.3	27.5
1496.36	26
1497.42	24.5
1498.48	27.5
1499.53	29
1500.59	25
1501.65	25.5
1502.71	25.5
1503.76	22
1504.82	24
1505.88	22.5
1506.93	26
1507.99	25
1509.05	25.5
1510.1	25.5
1511.16	24
1512.21	26.5
1513.27	29.5
1514.33	25
1515.38	26
1516.44	22
1517.49	26
1518.55	25.5
1519.6	25
1520.66	26
1521.71	23.5
1522.76	28
1523.82	25
1524.87	25
1525.93	26.5
1526.98	25
1528.03	23.5
1529.08	24.5
1530.14	28
1531.19	27.5
1532.24	28
1533.3	24
1534.35	25.5
1535.4	18.5
1536.45	30
1537.5	22.5
1538.56	26
1539.61	23
1540.66	25.5
1541.71	25
1542.76	27
1543.81	24.5
1544.86	23
1545.91	22
1546.96	26
1548.01	23
1549.06	27
1550.11	27
1551.16	23.5
1552.21	27
1553.26	27
1554.31	26.5
1555.36	24.5
1556.41	29
1557.46	29.5
1558.51	26
1559.56	26
1560.6	24
1561.65	22.5
1562.7	27.5
1563.75	23
1564.79	25
1565.84	24
1566.89	27.5
1567.94	26
1568.98	22
1570.03	24.5
1571.08	24
1572.12	20
1573.17	27
1574.22	24.5
1575.26	27
1576.31	28.5
1577.35	25.5
1578.4	27.5
1579.44	26
1580.49	25
1581.53	23.5
1582.58	21
1583.62	25.5
1584.67	22
1585.71	27.5
1586.76	25.5
1587.8	27
1588.84	23.5
1589.89	26
1590.93	27
1591.97	27
1593.02	21
1594.06	25
1595.1	26
1596.14	24
1597.19	27.5
1598.23	24.5
1599.27	27.5
1600.31	22
1601.36	25.5
1602.4	21.5
1603.44	24
1604.48	24
1605.52	25.5
1606.56	23.5
1607.6	26.5
1608.64	26.5
1609.68	25
1610.72	25.5
1611.76	25
1612.81	23.5
1613.84	21.5
1614.88	26
1615.92	26
1616.96	26.5
1618	23
1619.04	27.5
1620.08	24.5
1621.12	23.5
1622.16	26
1623.2	25
1624.23	22
1625.27	24.5
1626.31	23
1627.35	22
1628.39	24.5
1629.42	26.5
1630.46	26
1631.5	27
1632.53	24.5
1633.57	23.5
1634.61	20.5
1635.64	27
1636.68	25
1637.72	29
1638.75	27
1639.79	27.5
1640.82	25.5
1641.86	25
1642.89	23
1643.93	22
1644.96	26
1646	25
1647.03	24
1648.07	22
1649.1	26
1650.14	26
1651.17	21.5
1652.21	27.5
1653.24	26
1654.27	25.5
1655.31	25
1656.34	25.5
1657.37	29
1658.41	22
1659.44	25.5
1660.47	23.5
1661.5	26
1662.53	24
1663.57	24.5
1664.6	25
1665.63	25
1666.66	25
1667.69	25.5
1668.72	23.5
1669.76	23.5
1670.79	26
1671.82	22.5
1672.85	22.5
1673.88	25
1674.91	23.5
1675.94	25
1676.97	20.5
1678	29.5
1679.03	28
1680.06	26.5
1681.09	25
1682.12	29
1683.15	25.5
1684.17	25
1685.2	26
1686.23	29.5
1687.26	25
1688.29	23
1689.32	23.5
1690.34	22
1691.37	26.5
1692.4	30
1693.43	25.5
1694.45	23.5
1695.48	24
1696.51	26
1697.54	23.5
1698.56	23.5
1699.59	22.5
1700.61	29
1701.64	25.5
1702.67	26.5
1703.69	24.5
1704.72	21
1705.74	26.5
1706.77	26.5
1707.79	24.5
1708.82	25
1709.84	26
1710.87	26
1711.89	25
1712.92	20.5
1713.94	23.5
1714.97	27
1715.99	26
1717.01	22.5
1718.04	28.5
1719.06	24.5
1720.08	29
1721.11	23
1722.13	24
1723.15	26.5
1724.18	24.5
1725.2	22
1726.22	25
1727.24	27
1728.26	24
1729.29	26
1730.31	26
1731.33	25
1732.35	26.5
1733.37	24.5
1734.39	25
1735.41	24.5
1736.43	19
1737.45	24.5
1738.47	27
1739.5	25.5
1740.52	22
1741.53	25.5
1742.55	24
1743.57	27
1744.59	26.5
1745.61	30
1746.63	27
1747.65	25.5
1748.67	25.5
1749.69	23.5
1750.71	24.5
1751.72	27.5
1752.74	26
1753.76	24
1754.78	27
1755.8	29
1756.81	21
1757.83	24
1758.85	22.5
1759.87	24.5
1760.88	27
1761.9	21
1762.92	28
1763.93	24
1764.95	27
1765.96	24
1766.98	27
1768	26
1769.01	27.5
1770.03	27.5
1771.04	24.5
1772.06	22.5
1773.07	26
1774.09	26
1775.1	23
1776.12	26
1777.13	25
1778.15	24
1779.16	23
1780.17	25.5
1781.19	27.5
1782.2	27
1783.21	27.5
1784.23	27.5
1785.24	24.5
1786.25	22.5
1787.27	26
1788.28	25
1789.29	26
1790.3	23
1791.32	23
1792.33	26.5
1793.34	25.5
1794.35	21.5
1795.36	26
1796.38	26.5
1797.39	23.5
1798.4	22.5
1799.41	23.5
1800.42	27.5
1801.43	24
1802.44	26.5
1803.45	25
1804.46	27
1805.47	25.5
1806.48	23
1807.49	26.5
1808.5	28
1809.51	24.5
1810.52	25
1811.53	26.5
1812.53	24.5
1813.54	25
1814.55	27.5
1815.56	24
1816.57	24
1817.58	21
1818.59	22
1819.59	24
1820.6	24
1821.61	28
1822.62	19
1823.62	25
1824.63	24
1825.64	25.5
1826.64	25.5
1827.65	26.5
1828.66	25
1829.66	26
1830.67	25.5
1831.67	21.5
1832.68	26
1833.69	21.5
1834.69	25
1835.7	25
1836.7	24
1837.71	26
1838.71	22
1839.72	26
1840.72	26
1841.72	22
1842.73	27
1843.73	26
1844.74	20
1845.74	28
1846.74	26.5
1847.75	21
1848.75	24.5
1849.75	22.5
1850.76	23.5
1851.76	25.5
1852.76	24.5
1853.76	27
1854.77	24.5
1855.77	23.5
1856.77	22
1857.77	24.5
1858.78	25
1859.78	23.5
1860.78	25
1861.78	24.5
1862.78	23
1863.78	25
1864.78	28
1865.78	24.5
1866.78	28.5
1867.78	25
1868.78	20.5
1869.78	20
1870.78	26.5
1871.78	26.5
1872.78	23
1873.78	26
1874.78	26
1875.78	29
1876.78	24.5
1877.78	21.5
1878.78	24
1879.78	22
1880.77	24
1881.77	26.5
1882.77	24.5
1883.77	21
1884.77	28
1885.76	25.5
1886.76	22.5
1887.76	24
1888.75	27.5
1889.75	26
1890.75	25
1891.74	25.5
1892.74	23.5
1893.74	26.5
1894.73	24.5
1895.73	24
1896.73	25.5
1897.72	25.5
1898.72	21
1899.71	24.5
1900.71	23.5
1901.7	27
1902.7	27
1903.69	23
1904.69	23
1905.68	25.5
1906.68	24
1907.67	27
1908.66	24
1909.66	23.5
1910.65	26
1911.64	23
1912.64	24
1913.63	25.5
1914.62	24
1915.62	24.5
1916.61	21.5
1917.6	25.5
1918.6	22
1919.59	21.5
1920.58	23.5
1921.57	24
1922.56	24.5
1923.55	20
1924.55	24.5
1925.54	25
1926.53	24
1927.52	22.5
1928.51	25
1929.5	25
1930.49	20
1931.48	23.5
1932.47	28
1933.46	22
1934.45	26
1935.44	23
1936.43	24
1937.42	21.5
1938.41	29
1939.4	22.5
1940.39	23.5
1941.38	24
1942.37	22.5
1943.36	25
1944.35	24
1945.33	26
1946.32	27.5
1947.31	22
1948.3	24
1949.29	23
1950.27	22
1951.26	26.5
1952.25	29
1953.24	25
1954.22	26
1955.21	25
1956.2	27
1957.18	25
1958.17	22.5
1959.16	22
1960.14	20
1961.13	27
1962.11	25
1963.1	21.5
1964.08	24.5
1965.07	24
1966.05	25
1967.04	26
1968.02	23.5
1969.01	23.5
1969.99	20.5
1970.98	23
1971.96	23.5
1972.95	25
1973.93	24.5
1974.91	23
1975.9	22.5
1976.88	24
1977.86	24.5
1978.85	22
1979.83	25
1980.81	27
1981.8	24.5
1982.78	24
1983.76	24
1984.74	24
1985.73	22
1986.71	24
1987.69	28
1988.67	23
1989.65	24
1990.63	24.5
1991.62	21
1992.6	22
1993.58	25
1994.56	22.5
1995.54	28
1996.52	21.5
1997.5	24.5
1998.48	23
1999.46	25
2000.44	24.5
2001.42	22
2002.4	24
2003.38	23
2004.36	21
2005.34	24
2006.32	24.5
2007.29	23.5
2008.27	21
2009.25	22
2010.23	22.5
2011.21	25.5
2012.19	23
2013.17	23
2014.14	21
2015.12	22
2016.1	19.5
2017.07	23.5
2018.05	23
2019.03	22.5
2020.01	26
2020.98	22.5
2021.96	22.5
2022.94	24
2023.91	24
2024.89	20
2025.86	22.5
2026.84	23
2027.82	24
2028.79	22
2029.77	24.5
2030.74	25
2031.72	22
2032.69	26
2033.67	22.5
2034.64	23.5
2035.62	21.5
2036.59	18.5
2037.56	24.5
2038.54	24
2039.51	22
2040.49	23.5
2041.46	22.5
2042.43	23.5
2043.41	23
2044.38	24.5
2045.35	21
2046.32	23
2047.3	23
2048.27	23.5
2049.24	24.5
2050.21	22
2051.19	24
2052.16	24.5
2053.13	25
2054.1	22
2055.07	22.5
2056.05	25.5
2057.02	26
2057.99	24
2058.96	24.5
2059.93	23.5
2060.9	23
2061.87	23
2062.84	27
2063.81	22.5
2064.78	23.5
2065.75	26
2066.72	22.5
2067.69	27
2068.66	24.5
2069.63	24
2070.6	24
2071.57	23
2072.54	21.5
2073.5	26
2074.47	25
2075.44	25.5
2076.41	22.5
2077.38	22.5
2078.35	25
2079.31	23
2080.28	26.5
2081.25	20
2082.22	24.5
2083.18	22
2084.15	23
2085.12	23
2086.08	27
2087.05	23.5
2088.02	24.5
2088.98	23
2089.95	27
2090.92	23
2091.88	22.5
2092.85	25
2093.81	25.5
2094.78	26
2095.74	24.5
2096.71	26.5
2097.67	20.5
2098.64	21
2099.6	27
2100.57	24
2101.53	27.5
2102.5	23.5
2103.46	23.5
2104.42	26
2105.39	22
2106.35	26
2107.32	26.5
2108.28	25
2109.24	28
2110.21	24
2111.17	25
2112.13	21
2113.09	23.5
2114.06	22.5
2115.02	21.5
2115.98	23
2116.94	28
2117.91	23
2118.87	27
2119.83	22
2120.79	23
2121.75	22
2122.71	27
2123.67	22
2124.63	23.5
2125.6	21
2126.56	24
2127.52	18.5
2128.48	23
2129.44	20
2130.4	22.5
2131.36	22
2132.32	24
2133.28	19.5
2134.23	23.5
2135.19	25
2136.15	25.5
2137.11	20.5
2138.07	26
2139.03	22.5
2139.99	20
2140.95	23.5
2141.9	25
2142.86	19.5087
2143.82	21.0001
2144.78	21.5752
2145.74	25.4007
2146.69	21.9409
2147.65	24.8529
2148.61	23.8422
2149.57	24.7806
2150.52	20.7574
2151.48	20.3366
2152.44	21.5902
2153.39	22.4191
2154.35	25.0336
2155.31	23.6498
2156.26	25.0901
2157.22	24.4453
2158.17	23.1925
2159.13	22.0546
2160.08	22.591
2161.04	26.1622
2161.99	20.744
2162.95	20.7164
2163.91	25.7059
2164.86	22.175
2165.81	26.0776
2166.77	21.924
2167.72	21.4335
2168.68	24.0847
2169.63	23.5997
2170.58	25.0586
2171.54	22.5506
2172.49	22.823
2173.45	26.6925
2174.4	22.0645
2175.35	23.2372
2176.31	24.1368
2177.26	21.8337
2178.21	22.318
2179.16	22.0332
2180.12	24.7861
2181.07	21.8799
2182.02	20.9393
2182.97	23.6672
2183.92	24.5673
2184.88	23.0125
2185.83	22.4065
2186.78	21.9354
2187.73	20.5487
2188.68	22.6788
2189.63	22.1673
2190.58	20.9548
2191.53	21.7447
2192.49	20.2924
2193.43	22.2653
2194.39	21.4621
2195.34	25.1522
2196.28	24.2703
2197.24	25.0398
2198.19	22.004
2199.13	25.9035
2200.08	24.4903
2201.03	24.7824
2201.98	21.8896
2202.93	22.9369
2203.88	23.3247
2204.83	23.2099
2205.78	24.6474
2206.73	23.579
2207.67	23.7348
2208.62	22.1987
2209.57	23.2904
2210.52	24.1504
2211.47	22.157
2212.41	20.5284
2213.36	21.8596
2214.31	24.9624
2215.26	25.0441
2216.2	24.8454
2217.15	24.3218
2218.1	22.5759
2219.04	22.3079
2219.99	22.4563
2220.93	24.2896
2221.88	20.5224
2222.83	22.633
2223.77	19.4721
2224.72	23.5206
2225.66	24.6238
2226.61	23.0796
2227.55	24.7284
2228.5	23.7554
2229.44	23.8894
2230.39	22.2682
2231.33	21.181
2232.28	21.0825
2233.22	20.5955
2234.17	22.4429
2235.11	21.4634
2236.06	22.818
2237	22.26
2237.94	22.7858
2238.89	24.5676
2239.83	23.4714
2240.06	23
2241.01	25.5
2241.96	19.5
2242.9	22.5
2243.85	28
2244.8	20
2245.75	23
2246.69	19.5
2247.64	26
2248.59	21.5
2249.53	25
2250.48	24
2251.43	21.5
2252.37	21.5
2253.32	21.5
2254.27	25.5
2255.21	17
2256.16	24.5
2257.1	24.5
2258.05	21.5
2259	23.5
2259.94	23
2260.89	24
2261.83	23.5
2262.78	22.5
2263.72	22.5
2264.67	21.5
2265.61	26
2266.56	17
2267.5	23.5
2268.44	24
2269.39	19
2270.33	21
2271.27	23
2272.22	20.5
2273.16	25
2274.1	21.5
2275.05	21
2275.99	20
2276.93	22.5
2277.88	25
2278.82	25.5
2279.76	23
2280.7	20.5
2281.65	29
2282.59	29
2283.53	25
2284.47	24
2285.41	24.5
2286.35	23
2287.29	22
2288.24	26
2289.18	21
2290.12	25
2291.06	24
2292	22.5
2292.94	23.5
2293.88	21
2294.82	21
2295.76	24
2296.7	21
2297.64	23
2298.58	25
2299.52	21.5
2300.46	24.5
2301.4	22
2302.34	25.5
2303.28	24.5
2304.21	21
2305.15	26
2306.09	25.5
2307.03	25
2307.97	21
2308.91	20
2309.84	23
2310.78	24
2311.72	20
2312.66	19
2313.59	20.5
2314.53	20
2315.47	22.5
2316.4	24.5
2317.34	21.5
2318.28	19.5
2319.22	24
2320.15	24.5
2321.09	20
2322.02	22.5
2322.96	22
2323.89	20
2324.83	25
2325.77	21
2326.7	22.5
2327.64	23
2328.57	23
2329.51	23
2330.44	21
2331.38	24.5
2332.31	22.5
2333.25	26.5
2334.18	24.5
2335.11	23.5
2336.05	21.5
2336.98	18
2337.92	23
2338.85	22
2339.78	20.5
2340.72	22
2341.65	27
2342.58	26
2343.52	27
2344.45	25.5
2345.38	27
2346.31	19.5
2347.25	22
2348.18	22.5
2349.11	25
2350.04	23
2350.97	25
2351.9	23
2352.84	24
2353.77	23
2354.7	23
2355.63	23
2356.56	22
2357.49	21
2358.42	23.5
2359.35	21.5
2360.28	23
2361.21	26
2362.14	21
2363.07	23.5
2364	24
2364.93	26.5
2365.86	20.5
2366.79	26.5
2367.72	22
2368.65	21.5
2369.58	28
2370.51	22.5
2371.44	26.5
2372.36	20
2373.29	24
2374.22	24.5
2375.15	25.5
2376.08	23
2377.01	25.5
2377.93	26
2378.86	24
2379.79	24.5
2380.72	23.5
2381.64	21
2382.57	26
2383.5	26
2384.42	24
2385.35	26.5
2386.28	22
2387.2	25
2388.13	22
2389.06	24.5
2389.98	23
2390.91	22
2391.83	24
2392.76	23
2393.69	20
2394.61	19.5
2395.54	21
2396.46	23
2397.39	25.5
2398.31	21.5
2399.23	29
2400.16	24.5
2401.08	23
2402.01	27
2402.93	25.5
2403.86	24
2404.78	24.5
2405.7	22
2406.63	26
2407.55	20.5
2408.47	23
2409.4	24.5
2410.32	24
2411.24	23.5
2412.17	25
2413.09	26.5
2414.01	19.5
2414.93	22
2415.85	22
2416.78	24.5
2417.7	21
2418.62	22.5
2419.54	23.5
2420.46	27.5
2421.38	22
2422.31	24
2423.23	25
2424.15	26
2425.07	20.5
2425.99	24.5
2426.91	24
2427.83	21.5
2428.75	24
2429.67	22.5
2430.59	22.5
2431.51	25
2432.43	19
2433.35	23
2434.27	21
2435.19	27.5
2436.11	24
2437.03	28
2437.94	23
2438.86	21
2439.78	22
2440.7	26
2441.62	20
2442.54	21
2443.46	23.5
2444.37	26
2445.29	25
2446.21	24
2447.13	25.5
2448.04	23
2448.96	25
2449.88	26.5
2450.8	28
2451.71	26.5
2452.63	25
2453.55	26
2454.46	23.5
2455.38	22
2456.29	25.5
2457.21	25
2458.13	23.5
2459.04	27
2459.96	22
2460.87	23.5
2461.79	27
2462.7	24.5
2463.62	23.5
2464.53	25
2465.45	23
2466.36	23.5
2467.28	27.5
2468.19	29
2469.11	27
2470.02	27
2470.93	27.5
2471.85	23.5
2472.76	25
2473.67	24
2474.59	24
2475.5	25
2476.42	24.5
2477.33	29
2478.24	24.5
2479.15	26.5
2480.07	24.5
2480.98	25
2481.89	23
2482.8	24.5
2483.72	27.5
2484.63	24
2485.54	26
2486.45	26
2487.36	27
2488.27	28
2489.19	24.5
2490.1	24.5
2491.01	24.5
2491.92	22.5
2492.83	24.5
2493.74	21
2494.65	24
2495.56	23.5
2496.47	27
2497.38	27
2498.29	25.5
2499.2	21
2500.11	28
2501.02	24.5
2501.93	23.5
2502.84	26
2503.75	26
2504.66	24
2505.57	22
2506.47	24.5
2507.38	26
2508.29	24.5
2509.2	21
2510.11	26
2511.02	26.5
2511.92	27.5
2512.83	27
2513.74	24
2514.65	25
2515.55	24
2516.46	26
2517.37	25.5
2518.28	23
2519.18	20
2520.09	25.5
2521	25.5
2521.9	23
2522.81	24.5
2523.72	27
2524.62	24
2525.53	24
2526.43	24
2527.34	20
2528.24	23.5
2529.15	27.5
2530.06	25.5
2530.96	22.5
2531.87	20
2532.77	23.5
2533.68	26.5
2534.58	24.5
2535.48	25
2536.39	23.5
2537.29	23
2538.2	28
2539.1	23
2540	24
2540.91	24
2541.81	24
2542.72	26
2543.62	27.5
2544.52	22.5
2545.42	21.5
2546.33	28.5
2547.23	26
2548.13	21.5
2549.04	24
2549.94	23
2550.84	25
2551.74	25
2552.64	22
2553.55	25.5
2554.45	22
2555.35	23.5
2556.25	22.5
2557.15	25
2558.05	24.5
2558.95	23
2559.85	26.5
2560.76	21.5
2561.66	24
2562.56	23.5
2563.46	26
2564.36	23
2565.26	28
2566.16	20
2567.06	23.5
2567.96	26
2568.86	23
2569.76	28
2570.66	26
2571.55	23.5
2572.45	25.5
2573.35	21.5
2574.25	22
2575.15	25.5
2576.05	25
2576.95	26
2577.84	22.5
2578.74	27.5
2579.64	23
2580.54	25
2581.44	26.5
2582.33	23
2583.23	23
2584.13	23
2585.03	26
2585.92	24.5
2586.82	25.5
2587.72	25.5
2588.61	26
2589.51	28.5
2590.41	26
2591.3	26
2592.2	25.5
2593.09	23
2593.99	20.5
2594.89	27
2595.78	26
2596.68	26
2597.57	21.5
2598.47	26.5
2599.36	23.5
2600.26	22.5
2601.15	23
2602.05	29
2602.94	27
2603.84	26.5
2604.73	25
2605.63	28
2606.52	23.5
2607.41	27.5
2608.31	26
2609.2	23.5
2610.09	28
2610.99	27.5
2611.88	21
2612.77	26.5
2613.67	23
2614.56	23.5
2615.45	23
2616.35	26
2617.24	26
2618.13	23.5
2619.02	26
2619.91	22.5
2620.81	22.5
2621.7	21
2622.59	26
2623.48	25
2624.37	25
2625.26	20.5
2626.15	23
2627.05	25
2627.94	26.5
2628.83	23.5
2629.72	24
2630.61	20.5
2631.5	26.5
2632.39	22.5
2633.28	24
2634.17	19
2635.06	24
2635.95	25.5
2636.84	24
2637.73	24.5
2638.62	25.5
2639.51	22.5
2640.4	27.5
2641.28	21.5
2642.17	24
2643.06	25
2643.95	24
2644.84	25
2645.73	24
2646.62	22
2647.5	23
2648.39	21.5
2649.28	22.5
2650.17	26
2651.05	23.5
2651.94	24.5
2652.83	24.5
2653.72	23.5
2654.6	23
2655.49	23
2656.38	27
2657.26	22
2658.15	26
2659.04	24.5
2659.92	24
2660.81	20.5
2661.69	25
2662.58	25
2663.47	23
2664.35	24.5
2665.24	28.5
2666.12	19.5
2667.01	22.5
2667.89	25
2668.78	27
2669.66	24
2670.55	21.5
2671.43	22
2672.32	28
2673.2	23
2674.08	19
2674.97	26
2675.85	22
2676.74	26
2677.62	25
2678.5	26
2679.39	23.5
2680.27	25
2681.15	27.5
2682.04	25
2682.92	24.5
2683.8	26
2684.68	23.5
2685.57	25.5
2686.45	25
2687.33	23
2688.21	26
2689.09	23
2689.98	26
2690.86	21
2691.74	24.5
2692.62	21.5
2693.5	23.5
2694.38	23
2695.27	24.5
2696.15	23
2697.03	26
2697.91	26
2698.79	27
2699.67	24
2700.55	23.5
2701.43	22.5
2702.31	22.5
2703.19	23.5
2704.07	25
2704.95	26
2705.83	24.5
2706.71	22.5
2707.59	25
2708.47	27
2709.34	24
2710.22	25
2711.1	22.5
2711.98	24
2712.86	26
2713.74	23
2714.62	21
2715.49	26
2716.37	25
2717.25	24
2718.13	26
2719.01	27
2719.88	22.5
2720.76	25.5
2721.64	22
2722.51	24.5
2723.39	21
2724.27	19.5
2725.14	24.5
2726.02	27
2726.9	25
2727.77	27
2728.65	28
2729.53	27
2730.4	21
2731.28	26
2732.15	27
2733.03	27
2733.91	23
2734.78	24
2735.66	23
2736.53	23.5
2737.41	25.5
2738.28	24.5
2739.16	20.5
2740.03	26
2740.9	26
2741.78	20.5
2742.65	25.5
2743.53	25
2744.4	19
2745.27	24.5
2746.15	25
2747.02	24.5
2747.89	22.5
2748.77	23.5
2749.64	26
2750.51	23
2751.39	24.5
2752.26	22.5
2753.13	29.5
2754.01	26
2754.88	21.5
2755.75	23.5
2756.62	19
2757.49	24
2758.37	21
2759.24	26.5
2760.11	26
2760.98	26
2761.85	26
2762.72	22
2763.59	25.5
2764.46	26.5
2765.34	25
2766.21	25
2767.08	19.5
2767.95	26
2768.82	24
2769.69	25
2770.56	28
2771.43	25
2772.3	23.5
2773.17	24.5
2774.04	27.5
2774.91	29
2775.78	24.5
2776.65	22
2777.51	22.5
2778.38	24.5
2779.25	23.5
2780.12	28
2780.99	21
2781.86	20
2782.73	23.5
2783.59	25.5
2784.46	25
2785.33	25.5
2786.2	22.5
2787.07	28
2787.93	28
2788.8	20.5
2789.67	26
2790.54	21.5
2791.4	26
2792.27	26.5
2793.14	26
2794	27.5
2794.87	27
2795.74	26.5
2796.6	28
2797.47	24
2798.34	22
2799.2	28
2800.07	23.5
2800.93	25.25
2801.8	25
2802.66	26.5
2803.53	28.5
2804.39	24
2805.26	19
2806.12	26
2806.99	26.5
2807.85	27
2808.72	28
2809.58	26.5
2810.45	26
2811.31	28
2812.18	21.5
2813.04	24
2813.9	24
2814.77	24.5
2815.63	24
2816.49	25
2817.36	29
2818.22	23
2819.08	28
2819.95	26
2820.81	29
2821.67	29.5
2822.53	26.5
2823.4	22.5
2824.26	21.5
2825.12	23
2825.98	27.5
2826.84	25
2827.71	28.5
2828.57	23.5
2829.43	24.5
2830.29	28
2831.15	27.5
2832.01	24.5
2832.88	22.5
2833.74	26.5
2834.6	23
2835.46	25
2836.32	26
2837.18	27
2838.04	25.5
2838.9	26
2839.76	24.5
2840.62	25
2841.48	27.5
2842.34	24.5
2843.2	23
2844.06	25.5
2844.92	24
2845.78	23.5
2846.63	22
2847.49	21
2848.35	25
2849.21	26.5
2850.07	24.5
2850.93	25
2851.79	24
2852.64	23
2853.5	23.5
2854.36	26
2855.22	24.5
2856.08	24
2856.93	27
2857.79	28
2858.65	24
2859.51	23
2860.36	26
2861.22	26
2862.08	25.5
2862.93	23
2863.79	27.5
2864.65	28
2865.5	25
2866.36	28
2867.22	29
2868.07	28
2868.93	29
2869.78	31.5
2870.64	26.5
2871.49	28
2872.35	29
2873.21	28
2874.06	30.5
2874.91	31
2875.77	26
2876.62	26.5
2877.48	32.5
2878.33	30
2879.19	33.5
2880.04	31.5
2880.9	30.5
2881.75	31.5
2882.6	26
2883.46	30
2884.31	33
2885.17	33.5
2886.02	36.5
2886.87	33
2887.73	33.5
2888.58	36
2889.43	39
2890.28	37.5
2891.14	38.5
2891.99	40
2892.84	40
2893.69	42
2894.55	39
2895.4	44
2896.25	48.5
2897.1	48.5
2897.95	54
2898.8	54
2899.66	56
2900.51	57
2901.36	59
2902.21	62.5
2903.06	64
2903.91	62
2904.76	64.5
2905.61	60.5
2906.46	66
2907.31	65.5
2908.16	62
2909.01	60
2909.86	57.5
2910.71	54
2911.56	54.5
2912.41	51
2913.26	50
2914.11	48.5
2914.96	42
2915.81	41
2916.66	39
2917.51	34
2918.36	36.5
2919.2	41
2920.05	34.5
2920.9	35
2921.75	38
2922.6	34
2923.45	37.5
2924.29	33.5
2925.14	31
2925.99	31.5
2926.84	33
2927.68	25.5
2928.53	26.5
2929.38	28
2930.23	27
2931.07	29
2931.92	27.5
2932.77	25.5
2933.61	28
2934.46	23
2935.3	28.5
2936.15	28
2937	29
2937.84	26
2938.69	25
2939.53	25
2940.38	26.5
2941.23	29
2942.07	29
2942.92	30
2943.76	25
2944.61	27
2945.45	26.5
2946.3	26
2947.14	30
2947.98	33
2948.83	31.5
2949.67	31.5
2950.52	27
2951.36	28.5
2952.2	31
2953.05	30.5
2953.89	33.5
2954.74	30
2955.58	34
2956.42	32.5
2957.27	36
2958.11	34
2958.95	36
2959.79	31
2960.64	37.5
2961.48	37.5
2962.32	44.5
2963.16	41
2964.01	44
2964.85	44
2965.69	38
2966.53	43.5
2967.37	42.5
2968.21	39.5
2969.06	40.5
2969.9	37
2970.74	34
2971.58	37.5
2972.42	34.4768
2973.26	34.518
2974.1	29.2363
2974.94	31.5782
2975.78	34.2999
2976.62	33.7228
2977.46	33.3379
2978.3	29.9054
2979.14	29.4482
2979.98	28.1908
2980.82	30.3077
2981.66	27.0021
2982.5	31.2282
2983.34	26.7749
2984.18	21.2435
2985.02	28.6867
2985.86	28.4755
2986.7	27.4402
2987.54	28.7041
2988.38	24.2207
2989.21	25.5421
2990.05	26.9877
2990.89	23.1606
2991.73	22.667
2992.57	22.2476
2993.41	24.8231
2994.24	26.547
2995.08	28.6024
2995.92	23.7864
2996.76	24.4102
2997.59	26.2092
2998.43	26.2916
2999.27	25.3374
3000.1	22.2151
3000.94	23.6625
3001.78	24.8269
3002.61	22.568
3003.45	21.1778
3004.29	22.3559
3005.12	24.2072
3005.96	23.114
3006.8	23.4275
3007.63	21.7315
3008.47	21.6803
3009.3	23.5711
3010.14	23.2129
3010.97	23.9881
3011.81	25.9737
3012.64	23.0654
3013.48	20.0545
3014.31	21.9905
3015.15	24.2257
3015.98	23.7415
3016.82	24.061
3017.65	21.056
3018.49	23.3873
3019.32	23.0765
3020.16	22.3276
3020.99	23.3742
3021.82	22.8176
3022.66	23.3259
3023.49	25.0577
3024.32	21.1341
3025.16	23.5127
3025.99	20.7174
3026.82	21.811
3027.66	24.1456
3028.49	22.8131
3029.32	20.9361
3030.16	22.0795
3030.99	22.6211
3031.82	24.3663
3032.65	21.3052
3033.49	22.4272
3034.32	23.1258
3035.15	22.3631
3035.98	23.0545
3036.81	21.5929
3037.64	22.1831
3038.48	21.4613
3039.31	21.1728
3040.14	21.8119
3040.97	21.3051
3041.8	22.7404
3042.63	22.7108
3043.46	21.9254
3044.29	23.0348
3045.12	23.0135
3045.95	23.1523
3046.78	24.676
3047.61	24.2539
3048.44	19.8676
3049.27	21.1078
3050.1	24.0648
3050.93	24.5745
3051.76	22.9319
3052.59	22.8232
3053.42	23.9716
3054.25	23.6535
3055.08	24.202
3055.91	23.9272
3056.74	24.3744
3057.26	25
3058.09	19
3058.92	22
3059.76	22.5
3060.59	22
3061.42	23
3062.26	28
3063.09	23
3063.92	24
3064.75	26
3065.59	25.5
3066.42	21.5
3067.25	17.5
3068.08	20.5
3068.91	23
3069.74	23
3070.58	23.5
3071.41	19.5
3072.24	23.5
3073.07	20.5
3073.9	24.5
3074.73	21.5
3075.56	19.5
3076.39	24.5
3077.22	20
3078.05	25
3078.88	22
3079.71	19.5
3080.55	25
3081.38	26.5
3082.2	29.5
3083.03	24
3083.86	21
3084.69	26
3085.52	23
3086.35	22.5
3087.18	23
3088.01	20
3088.84	26
3089.67	25
3090.5	23
3091.33	20
3092.15	25
3092.98	18.5
3093.81	23
3094.64	26.5
3095.47	22
3096.29	25
3097.12	22
3097.95	24
3098.78	21.5
3099.6	22
3100.43	21
3101.26	22
3102.09	25.5
3102.91	22
3103.74	23
3104.57	23.5
3105.39	22
3106.22	23
3107.05	26
3107.87	23
3108.7	23
3109.52	20
3110.35	22.5
3111.18	25.5
3112	24.5
3112.83	20.5
3113.65	23
3114.48	21.5
3115.3	21
3116.13	19
3116.95	25
3117.78	23
3118.6	20
3119.43	24.5
3120.25	25
3121.08	24
3121.9	23
3122.73	23
3123.55	22.5
3124.37	23
3125.2	23
3126.02	25
3126.84	27.5
3127.67	22
3128.49	26.5
3129.31	22.5
3130.14	19.5
3130.96	27
3131.78	21.5
3132.61	25.5
3133.43	23
3134.25	25.5
3135.07	22.5
3135.9	23
3136.72	24.5
3137.54	25.5
3138.36	23
3139.18	24.5
3140.01	26
3140.83	23.5
3141.65	19
3142.47	27
3143.29	21
3144.11	24
3144.93	22.5
3145.75	26.5
3146.58	25
3147.4	19
3148.22	20
3149.04	23
3149.86	22
3150.68	23.5
3151.5	22.5
3152.32	25
3153.14	24
3153.96	24
3154.78	24
3155.6	22
3156.42	20
3157.23	24.5
3158.05	22
3158.87	23.5
3159.69	24
3160.51	19
3161.33	23.5
3162.15	24
3162.97	24
3163.79	20
3164.6	24
3165.42	25
3166.24	22.5
3167.06	25
3167.88	25
3168.69	26.5
3169.51	23.5
3170.33	23.5
3171.15	23
3171.96	23.5
3172.78	25.5
3173.6	23.5
3174.41	26.5
3175.23	21.5
3176.05	23.5
3176.86	25
3177.68	23.5
3178.5	22
3179.31	21
3180.13	23.5
3180.95	23.5
3181.76	22
3182.58	21.5
3183.39	24
3184.21	23
3185.02	25.5
3185.84	24
3186.65	19
3187.47	21.5
3188.28	25.5
3189.1	21.5
3189.91	24
3190.73	23.5
3191.54	26.5
3192.36	24.5
3193.17	23.5
3193.99	26.5
3194.8	21
3195.61	25
3196.43	24.5
3197.24	25.5
3198.05	22
3198.87	26.5
3199.68	25.5
3200.49	21.5
3201.31	23
3202.12	23
3202.93	25.5
3203.75	23
3204.56	24
3205.37	25.5
3206.18	21
3207	20
3207.81	21
3208.62	22.5
3209.43	24
3210.24	19.5
3211.06	25.5
3211.87	25.5
3212.68	23.5
3213.49	24
3214.3	24.5
3215.11	19.5
3215.92	27.5
3216.74	22
3217.55	19
3218.36	25
3219.17	24.5
3219.98	25
3220.79	28
3221.6	22.5
3222.41	24
3223.22	23
3224.03	24.5
3224.84	23
3225.65	27.5
3226.46	21.5
3227.27	24
3228.08	21
3228.89	22
3229.7	26
3230.5	23.5
3231.31	25
3232.12	25
3232.93	22
3233.74	24.5
3234.55	22
3235.36	26
3236.16	21.5
3236.97	24.5
3237.78	25.5
3238.59	23
3239.4	22
3240.2	24.5
3241.01	27
3241.82	23.5
3242.63	22.5
3243.43	19
3244.24	24.5
3245.05	27
3245.86	24
3246.66	29
3247.47	21.5
3248.28	27.5
3249.08	23
3249.89	21
3250.69	19
3251.5	21
3252.31	27.5
3253.11	25.5
3253.92	24
3254.72	21.5
3255.53	26.5
3256.34	28.5
3257.14	24
3257.95	25
3258.75	22.5
3259.56	23
3260.36	24
3261.17	21
3261.97	22.5
3262.77	20
3263.58	22
3264.38	24
3265.19	24.5
3265.99	25
3266.8	27
3267.6	24.5
3268.4	25
3269.21	24.5
3270.01	23.5
3270.81	22
3271.62	23.5
3272.42	24
3273.22	26.5
3274.03	20.5
3274.83	26
3275.63	26
3276.43	25
3277.24	27
3278.04	24.5
3278.84	29
3279.64	24.5
3280.45	23.5
3281.25	23.5
3282.05	26
3282.85	22
3283.65	23.5
3284.46	23.5
3285.26	25
3286.06	20
3286.86	23
3287.66	23
3288.46	23
3289.26	20.5
3290.06	23.5
3290.86	22.5
3291.66	25
3292.46	21.5
3293.26	25.5
3294.06	25
3294.86	21.5
3295.66	22.5
3296.46	27.5
3297.26	24.5
3298.06	23.5
3298.86	22
3299.66	22
3300.46	21.5
3301.26	19
3302.06	25
3302.86	26
3303.66	21
3304.46	22
3305.26	27
3306.05	24
3306.85	24
3307.65	26
3308.45	26
3309.25	21.5
3310.04	24
3310.84	26.5
3311.64	28
3312.44	25
3313.24	24
3314.03	22.5
3314.83	22
3315.63	24.5
3316.42	23
3317.22	25
3318.02	28
3318.82	20.5
3319.61	26
3320.41	24.5
3321.2	22.5
3322	28
3322.8	23
3323.59	26.5
3324.39	29
3325.19	23
3325.98	27.5
3326.78	24
3327.57	26.5
3328.37	23
3329.16	23.5
3329.96	23
3330.75	25
3331.55	24
3332.34	24.5
3333.14	25
3333.93	22
3334.73	24
3335.52	21.5
3336.32	25.5
3337.11	24
3337.9	19
3338.7	24.5
3339.49	23
3340.29	24.5
3341.08	26
3341.87	22
3342.67	28
3343.46	24.5
3344.25	26
3345.05	21
3345.84	25
3346.63	23
3347.42	23.5
3348.22	22.5
3349.01	24
3349.8	24.5
3350.59	22
3351.39	23.5
3352.18	23.5
3352.97	24.5
3353.76	27
3354.55	25
3355.35	20.5
3356.14	23
3356.93	22
3357.72	19.5
3358.51	28
3359.3	22
3360.09	24
3360.88	25
3361.67	26
3362.47	22
3363.26	23
3364.05	26.5
3364.84	23.5
3365.63	26
3366.42	21.5
3367.21	26
3368	24
3368.79	24.5
3369.58	21.5
3370.37	23
3371.16	23.5
3371.95	23
3372.73	26.5
3373.52	23
3374.31	24
3375.1	26
3375.89	25
3376.68	27
3377.47	25.5
3378.26	21
3379.04	20.5
3379.83	24
3380.62	26.5
3381.41	29
3382.2	23
3382.98	25
3383.77	26
3384.56	22
3385.35	24.5
3386.14	24
3386.92	24
3387.71	22
3388.5	25
3389.28	21.5
3390.07	24.5
3390.86	26.5
3391.64	21
3392.43	24
3393.22	24.5
3394	22
3394.79	28
3395.58	23
3396.36	27
3397.15	23
3397.93	21
3398.72	25
3399.5	26.5
3400.29	23
3401.07	22
3401.86	25
3402.65	24
3403.43	25.5
3404.22	24
3405	23.5
3405.79	21
3406.57	22
3407.35	24
3408.14	24
3408.92	22
3409.71	16
3410.49	24.5
3411.27	20
3412.06	26
3412.84	22.5
3413.63	24.5
3414.41	21
3415.19	25.5
3415.98	22
3416.76	29.5
3417.54	24
3418.32	23.5
3419.11	23
3419.89	24.5
3420.67	25.5
3421.46	25
3422.24	25.5
3423.02	22
3423.8	22.5
3424.58	26.5
3425.37	22
3426.15	20
3426.93	24.5
3427.71	23
3428.49	28.5
3429.27	25.5
3430.06	25
3430.84	25
3431.62	25
3432.4	17.5
3433.18	21.5
3433.96	24.5
3434.74	26
3435.52	25
3436.3	22.5
3437.08	22
3437.86	26
3438.64	23
3439.42	22
3440.2	21.5
3440.98	27
3441.76	22
3442.54	24
3443.32	21
3444.1	23
3444.88	23
3445.66	24.5
3446.44	23.5
3447.22	25
3448	22
3448.78	24.5
3449.55	24
3450.33	26
3451.11	24
3451.89	25
3452.67	24
3453.45	24
3454.22	27
3455	24.5
3455.78	22
3456.56	19.5
3457.33	30.5
3458.11	23
3458.89	25
3459.67	26
3460.44	24
3461.22	25.5
3462	25
3462.77	25
3463.55	25.5
3464.33	25
3465.1	26.5
3465.88	24.5
3466.66	22
3467.43	22
3468.21	22.5
3468.99	22
3469.76	22.5
3470.54	24.5
3471.31	24
3472.09	23.5
3472.86	23
3473.64	27
3474.41	26
3475.19	26.5
3475.96	27
3476.74	24
3477.51	26.5
3478.29	19
3479.06	24
3479.84	25.5
3480.61	24
3481.39	25
3482.16	21
3482.93	18
3483.71	23.5
3484.48	23
3485.26	22.5
3486.03	25
3486.8	22.5
3487.58	23.5
3488.35	24.5
3489.12	22
3489.9	25
3490.67	24.5
3491.44	26.5
3492.21	26
3492.99	25
3493.76	23.5
3494.53	22
3495.3	26
3496.08	24
3496.85	22
3497.62	23.5
3498.39	27.5
3499.16	24.5
3499.94	24.5
