#Acq. time (s)=	5
#Accumulations=	5
#Range (cm-ｹ)=	100...3500
#Windows=	4
#Autofocus=	Off
#AutoExposure=	Off
#Spike filter=	Multiple accum.
#Delay time (s)=	0
#Binning=	1
#Readout mode=	Signal
#DeNoise=	Off
#ICS correction=	Off
#Dark correction=	Off
#Inst. Process=	Off
#Instrument=	LabRAM HR Evol
#Detector=	Syncerity OE
#Objective=	x100_VIS
#Grating=	600 (500nm)
#ND Filter=	25%
#Laser=	633nm_Edge
#Hole=	100.021
#Range=	Visible
#Project=	verificaciones
#Sample=	a3
#Site=	lined
#Title=	bolusa3lined
#Remark=	
#Date=	12.01.2026 16:10
#Acquired=	12.01.2026 16:10:19
100.666	26.5
101.95	36
103.233	32
104.516	33
105.799	29
107.083	32
108.365	29.5
109.648	32
110.93	27.5
112.212	32
113.493	31
114.775	28.5
116.056	29
117.337	31
118.618	32
119.898	30
121.178	32
122.459	31.5
123.739	29
125.018	32
126.298	33
127.577	30.5
128.856	32.5
130.135	31.5
131.414	27
132.692	32.5
133.971	29
135.249	34
136.525	32
137.803	36
139.08	31.5
140.357	36
141.634	31
142.911	38
144.188	33
145.464	34.5
146.74	33
148.015	39
149.291	37.5
150.566	36.5
151.842	37
153.117	38
154.392	43
155.665	39
156.939	34
158.214	39
159.488	37.5
160.76	43
162.034	38
163.307	40.5
164.581	36.5
165.854	37.5
167.125	37
168.398	36.5
169.67	36.5
170.941	29.5
172.213	36
173.485	29.5
174.756	36.5
176.026	41
177.298	31
178.569	38.5
179.838	39.5
181.109	39.5
182.379	40.5
183.648	37
184.918	38
186.187	37
187.455	33.5
188.725	41.5
189.992	36
191.261	38.5
192.53	35.5
193.797	35.5
195.065	36.5
196.332	36.5
197.6	38
198.866	39.5
200.134	38
201.401	32.5
202.667	32
203.933	35
205.199	33.5
206.465	34
207.73	39
208.996	37.5
210.26	33.5
211.526	37
212.79	35
214.055	29.5
215.319	34
216.582	33
217.847	34
219.11	32
220.374	31.5
221.636	33.5
222.9	34
224.162	30.5
225.424	35
226.687	36
227.949	33.5
229.212	29
230.473	27.5
231.734	34
232.996	31
234.256	29.5
235.517	33.5
236.778	34.5
238.038	32
239.298	30
240.559	29
241.818	29.5
243.077	28.5
244.337	28.5
245.596	25.5
246.854	30
248.113	27.5
249.372	30
250.63	30.5
251.887	30
253.145	30.5
254.404	30.5
255.661	24
256.917	31
258.174	24
259.432	31.5
260.688	30
261.944	27.5
263.2	28
264.456	31
265.711	33.5
266.968	29
268.223	27.5
269.477	30
270.732	30.5
271.986	29.5
273.24	28
274.494	28
275.748	31
277.003	31.5
278.257	21.5
279.51	26.5
280.763	33.5
282.015	28
283.268	29.5
284.52	30
285.773	28.5
287.024	27
288.276	26
289.528	27
290.779	23.5
292.03	25.5
293.281	29
294.532	25
295.782	25.5
297.033	30
298.283	27.5
299.533	27.5
300.783	28
302.032	27.5
303.281	26.5
304.531	28
305.78	29
307.028	30
308.275	26.5
309.524	27
310.772	30
312.02	25.5
313.267	30
314.515	29.5
315.762	33.5
317.009	28.5
318.255	27.5
319.501	27.5
320.748	30
321.994	30
323.24	28
324.486	28.5
325.731	29.5
326.976	29.5
328.221	25
329.466	22
330.71	23
331.955	31.5
333.199	31
334.443	31
335.686	23
336.93	25.5
338.174	25
339.417	31
340.659	29.5
341.902	27.5
343.145	29
344.386	25
345.629	30
346.871	26
348.112	23
349.354	28
350.595	27.5
351.836	27
353.077	30.5
354.318	34
355.557	29
356.798	29
358.037	25
359.277	27
360.518	29
361.756	30
362.996	26
364.234	28
365.473	30.5
366.711	26
367.95	30
369.187	31
370.426	26.5
371.662	24
372.901	29
374.137	31
375.375	28
376.611	30
377.848	29.5
379.084	30
380.321	29
381.556	27.5
382.793	26.5
384.027	30
385.264	29.5
386.498	29
387.732	27.5
388.968	27.5
390.202	26.5
391.437	30
392.671	29.5
393.904	27
395.138	30
396.371	27.5
397.604	27.5
398.838	28
400.07	30.5
401.302	29.5
402.536	26.5
403.768	31
404.999	26.5
406.232	26
407.463	26
408.694	33
409.925	30.5
411.157	25.5
412.387	27
413.617	27
414.847	31
416.078	28.5
417.308	30.5
418.537	31.5
419.767	26
420.997	29
422.226	29.5
423.454	28.5
424.683	28.5
425.911	25
427.139	29.5
428.368	25.5
429.596	26.5
430.823	27
432.05	27.5
433.277	23.5
434.504	27.5
435.731	26.5
436.957	29.5
438.185	27.5
439.411	26
440.637	27.5
441.862	29
443.088	31.5
444.313	24
445.538	28
446.763	26
447.988	25
449.212	25.5
450.436	34
451.661	29
452.884	30
454.108	29.5
455.332	29.5
456.555	25
457.778	28
459.001	30
460.224	30
461.446	28
462.668	32
463.891	29.5
465.111	29.5
466.333	34
467.554	24
468.776	34
469.997	35
471.218	32.5
472.439	39
473.659	33.5
474.878	37
476.098	36.5
477.318	43
478.538	41
479.758	46
480.977	45.5
482.195	46
483.414	53.5
484.633	48.5
485.851	52
487.07	50
488.287	48
489.505	54
490.723	52.5
491.94	49.5
493.156	45.5
494.374	44
495.591	49
496.806	48
498.023	42.5
499.239	42
500.456	40.5
501.67	36
502.886	39.5
504.102	36.5
505.316	34
506.531	34
507.745	35.5
508.96	36.5
510.175	34.5
511.388	32.5
512.602	33.5
513.815	33
515.029	32.5
516.243	35
517.455	31.5
518.669	30
519.88	33
521.093	33
522.305	32
523.518	28.5
524.729	31.5
525.941	28.5
527.151	30
528.363	31.5
529.574	29
530.785	29
531.995	31.5
533.206	28
534.416	24
535.626	33.5
536.835	31.5
538.046	26
539.254	29
540.463	28
541.673	26.5
542.881	35
544.09	28.5
545.298	29
546.506	29.5
547.714	31.5
548.922	33.5
550.13	22.5
551.337	28.5
552.544	27.5
553.751	32
554.958	30
556.164	30.5
557.37	24
558.577	28.5
559.782	28
560.987	28.5
562.194	29
563.399	30
564.604	27
565.808	28
567.014	25
568.218	26.5
569.422	30
570.626	27.5
571.829	24.5
573.034	29.5
574.237	28.5
575.44	30
576.643	29
577.846	30.5
579.048	29
580.252	32.5
581.454	28.5
582.656	27.5
583.857	27.5
585.059	25
586.26	27
587.461	30.5
588.662	33.5
589.863	28
591.065	25
592.265	29
593.465	27
594.665	29
595.865	25.5
597.065	27.5
598.264	26
599.463	29
600.662	28.5
601.861	30
603.06	27.5
604.258	29
605.457	30
606.655	27.5
607.853	26.5
609.05	32.5
610.248	29.5
611.444	27.5
612.641	29.5
613.838	25.5
615.034	28
616.231	27
617.427	27
618.624	28
619.82	28
621.015	29
622.21	26
623.405	30.5
624.6	28.5
625.795	31
626.99	27
628.185	28
629.378	27
630.572	29
631.766	31.5
632.96	28.5
634.154	26
635.346	29
636.54	32
637.733	29
638.926	31
640.117	26
641.31	26
642.502	28.5
643.693	29
644.885	26
646.077	27
647.267	31
648.459	27.5
649.65	26.5
650.84	26.5
652.031	29
653.222	25.5
654.411	30
655.601	28
656.791	30
657.98	32.5
659.17	31
660.358	31.5
661.547	25
662.737	27
663.924	32
665.113	29
666.3	33
667.489	32
668.676	33
669.864	32
671.05	34.5
672.238	31.5
673.424	27
674.612	34
675.798	36
676.985	34
678.17	32
679.357	32.5
680.542	32.5
681.728	28
682.913	34.5
684.097	33
685.283	33.5
686.467	36
687.652	38.5
688.836	32.5
690.02	28.5
691.205	32.5
692.388	32
693.571	34.5
694.755	31.5
695.938	34
697.12	37
698.304	33
699.486	38
700.668	37.5
701.851	33.5
703.032	38
704.214	43.5
705.395	46
706.577	45
707.758	52.5
708.939	48.5
710.119	45.5
711.301	40.5
712.481	36
713.661	38.5
714.84	37
716.02	31
717.201	34
718.38	29
719.559	29
720.737	28
721.916	30
723.094	32.5
724.274	24
725.452	30
726.63	28.5
727.808	28
728.985	31
730.162	28
731.339	31.5
732.516	25.5
733.693	29
734.87	30
736.046	23
737.222	27
738.398	29
739.574	27.5
740.75	26.5
741.925	27
743.1	25.5
744.276	28
745.45	26
746.625	32.5
747.8	32.5
748.974	30
750.148	27.5
751.322	32.5
752.496	27
753.67	24
754.843	26.5
756.016	30.5
757.189	31.5
758.362	27.5
759.534	30
760.706	30.5
761.878	24
763.051	30
764.223	28.5
765.394	23
766.565	26.5
767.736	29
768.907	32.5
770.078	31
771.249	29.5
772.419	29.5
773.589	27.5
774.759	27
775.93	28
777.098	27
778.268	26
779.438	27
780.607	30
781.775	29.5
782.944	29.5
784.113	31.5
785.28	31.5
786.449	32
787.617	32.5
788.784	31
789.952	30
791.12	30
792.286	32
793.453	30.5
794.62	28
795.786	26
796.953	30.5
798.118	26
799.285	29.5
800.45	30
801.616	31
802.782	26
803.946	29
805.112	29.5
806.276	28
807.441	29
808.605	29
809.77	28.5
810.933	24
812.098	29
813.261	26.5
814.425	27.5
815.588	30
816.75	27.5
817.914	25.5
819.076	25
820.239	28.5
821.401	28.5
822.564	27.5
823.725	26.5
824.886	28.5
826.048	25.5
827.209	28
828.37	23
829.532	29
830.692	26
831.852	31
833.013	27
834.173	30.5
835.333	30
836.493	26
837.653	31
838.812	25
839.972	28.5
841.13	28.5
842.289	24.5
843.447	28.5
844.607	30.5
845.765	24.5
846.922	25.5
848.08	30.5
849.237	29
850.396	26
851.553	30
852.71	26.5
853.867	28.5
855.023	26
856.179	31
857.337	31
858.493	28
859.649	30.5
860.804	27
861.96	30.5
863.115	33.5
864.27	28.5
865.425	32
866.58	26
867.734	30
868.888	28.5
870.043	26
871.197	30
872.35	24.5
873.504	30
874.658	27
875.811	27.5
876.964	28.5
878.117	32
879.27	27
880.422	28
881.575	33.5
882.727	28.5
883.879	28
885.031	21
886.182	25.5
887.334	28
888.485	26
889.636	30
890.787	28
891.937	24
893.088	27.5
894.238	28
895.388	25
896.538	29
897.688	24.5
898.837	27.5
899.986	27
901.136	29
902.285	26.5
903.434	29
904.581	26.5
905.73	26
906.878	23.5
908.027	23
909.174	27
910.321	27
911.469	22.5
912.617	30.5
913.763	28
914.91	23
916.057	25.5
917.203	21
918.35	24
919.496	29.5
920.641	22
921.787	26
922.933	26
924.078	28
925.224	27.5
926.368	29
927.513	28
928.658	26.5
929.802	26
930.946	24
932.09	27.5
933.234	27
934.377	27
935.521	31
936.664	25.5
937.807	24
938.95	25
940.093	22
941.235	25
942.378	24.5
943.519	26.5
944.662	26.5
945.803	30
946.946	26
948.086	30.5
949.227	26
950.369	27
951.509	28
952.651	26
953.79	30.5
954.93	25.5
956.071	24
957.211	31
958.35	28
959.49	26.5
960.629	25
961.768	23.5
962.908	25.5
964.046	24.5
965.184	22.5
966.323	23.5
967.461	25
968.599	27.5
969.736	25.5
970.875	24.5
972.012	23
973.149	25.5
974.286	28
975.424	23.5
976.56	24.5
977.697	23
978.833	27
979.969	27
981.104	28.5
982.241	30
983.377	24
984.512	21
985.647	30
986.782	26
987.916	25
989.051	28
990.185	25.5
991.321	25
992.455	27.5
993.589	26
994.722	28
995.856	28
996.989	27.5
998.122	27.5
999.255	27
1000.39	22
1001.52	25
1002.65	26.5
1003.79	24
1004.92	22
1006.05	29.5
1007.18	27
1008.31	29
1009.44	26
1010.57	26.5
1011.7	25.5
1012.84	26.5
1013.97	26
1015.1	29
1016.23	27
1017.36	26.5
1018.49	26.5
1019.62	27
1020.75	25
1021.88	22.5
1023	27
1024.13	29
1025.26	27
1026.39	27
1027.52	27
1028.65	28
1029.78	26.5
1030.9	25.5
1032.03	27.5
1033.16	25.5
1034.29	27
1035.41	27.5
1036.54	26.5
1037.67	26.5
1038.79	26.5
1039.92	26.5
1041.04	28
1042.17	28.5
1043.3	27
1044.42	24
1045.55	22.5
1046.67	27.5
1047.8	26
1048.92	26.5
1050.05	26
1051.17	26.5
1052.3	24
1053.42	27
1054.54	24
1055.67	29
1056.79	25
1057.91	29
1059.04	27
1060.16	24
1061.28	27
1062.41	26
1063.53	29.5
1064.65	26.5
1065.77	26
1066.9	26.5
1068.02	28.5
1069.14	24
1070.26	25
1071.38	28
1072.5	27
1073.62	29
1074.74	26
1075.86	28
1076.98	23.5
1078.1	29
1079.22	26.5
1080.34	25
1081.46	23.5
1082.58	26
1083.7	26
1084.82	27.5
1085.94	26
1087.06	25
1088.18	27
1089.29	27
1090.41	25
1091.53	26
1092.65	23
1093.77	23
1094.88	29
1096	24
1097.12	26.5
1098.23	22.5
1099.35	23
1100.47	25
1101.58	29.5
1102.7	26
1103.82	26.5
1104.93	24.5
1106.05	30
1107.16	24
1108.28	26
1109.39	25
1110.51	26
1111.62	29
1112.74	24.5
1113.85	22.5
1114.96	28.5
1116.08	29
1117.19	24
1118.31	24
1119.42	25
1120.53	25
1121.65	25
1122.76	27
1123.87	25.5
1124.98	28
1126.1	26
1127.21	23.5
1128.32	23
1129.43	28.5
1130.54	27
1131.65	25
1132.76	27.5
1133.88	24.5
1134.99	25
1136.1	25
1137.21	23
1138.32	25
1139.43	24
1140.54	26
1141.65	23
1142.76	29.5
1143.87	23
1144.98	24
1146.08	26.5
1147.19	28
1148.3	21.5
1149.41	30
1150.52	22.5
1151.63	27
1152.73	27.5
1153.84	25
1154.95	26
1156.06	28
1157.17	22
1158.27	28.5
1159.38	23.5
1160.49	29
1161.59	23
1162.7	26
1163.8	25.5
1164.91	28.5
1166.02	24.5
1167.12	25.5
1168.23	23
1169.33	26.5
1170.44	24.5
1171.54	26.5
1172.65	27
1173.75	22
1174.86	25
1175.96	24.5
1177.06	27
1178.17	24.5
1179.27	24.5
1180.37	29
1181.48	26.5
1182.58	30.5
1183.68	27
1184.79	24
1185.89	25.5
1186.99	23.5
1188.09	25.5
1189.2	25
1190.3	25.5
1191.4	26.5
1192.5	25
1193.6	24.5
1194.7	22.5003
1195.8	27.3968
1196.9	27.4946
1198.01	20.369
1199.11	25.4345
1200.21	25.9127
1201.31	27.3997
1202.41	26.4145
1203.5	25.8762
1204.6	24.9161
1205.7	24.7513
1206.8	21.9035
1207.9	24.3543
1209	26.7379
1210.1	23.7112
1211.2	23.2806
1212.3	26.5404
1213.39	24.478
1214.49	24.9763
1215.59	26.9035
1216.69	23.6712
1217.78	22.1864
1218.88	27.5603
1219.98	25.9559
1221.08	25.176
1222.17	23.9514
1223.27	23.4785
1224.37	24.3536
1225.46	26.3629
1226.56	26.9951
1227.65	23.722
1228.75	21.8705
1229.84	28.1588
1230.94	22.594
1232.03	24.695
1233.13	24.0072
1234.22	25.6322
1235.32	25.2142
1236.41	24.1026
1237.51	28.21
1238.6	25.4929
1239.69	22.1069
1240.79	26.3519
1241.88	27.0223
1242.97	25.1465
1244.07	22.2549
1245.16	25.5708
1246.25	22.4185
1247.35	25.8151
1248.44	24.2856
1249.53	26.3625
1250.62	26.316
1251.71	25.256
1252.81	23.7914
1253.9	25.9897
1254.99	26.3083
1256.08	26.9365
1257.17	25.7791
1258.26	27.9184
1259.35	26.7219
1260.44	25.6667
1261.53	24.5971
1262.62	25.3932
1263.71	26.324
1264.8	25.1579
1265.89	28.5242
1266.98	23.8479
1268.07	23.4492
1269.16	24.837
1270.25	25.3163
1271.34	24.2685
1272.43	24.9117
1273.52	23.4443
1274.6	25.2602
1275.69	23.2629
1276.78	24.7432
1277.87	24.8617
1278.95	23.315
1280.04	23.7782
1281.13	24.0936
1282.22	25.2887
1283.3	24.5326
1284.39	22.4514
1285.48	22.9073
1286.56	25.2148
1287.65	25.6696
1288.73	23.9303
1289.82	24.2852
1290.91	24.1079
1291.99	23.7265
1293.08	23.9603
1294.16	25.1979
1295.24	24.0787
1296.33	22.9038
1297.41	25.3453
1298.5	25.1158
1299.58	23.1118
1300.67	22.0434
1301.75	24.7993
1302.83	26.6499
1303.92	26.5023
1305	24.0227
1306.08	24.7918
1306.4	25.5
1307.49	25.5
1308.58	22
1309.66	25
1310.75	21.5
1311.84	26
1312.93	27.5
1314.01	23
1315.1	26
1316.19	24.5
1317.27	26
1318.36	22.5
1319.45	22
1320.53	24
1321.62	26
1322.71	25.5
1323.79	24.5
1324.88	26.5
1325.96	23.5
1327.05	25
1328.13	24.5
1329.22	25
1330.3	25
1331.39	20
1332.47	25.5
1333.55	26.5
1334.64	22.5
1335.72	29
1336.81	24.5
1337.89	24
1338.97	26
1340.06	25
1341.14	22.5
1342.22	25.5
1343.3	24.5
1344.39	25.5
1345.47	26.5
1346.55	25
1347.63	25
1348.71	23
1349.8	25
1350.88	27
1351.96	24
1353.04	23
1354.12	25
1355.2	24
1356.28	25.5
1357.36	22.5
1358.44	25
1359.52	25
1360.6	23.5
1361.68	25.5
1362.76	27.5
1363.84	25
1364.92	24
1366	28.5
1367.08	20.5
1368.16	23.5
1369.23	25
1370.31	24
1371.39	22.5
1372.47	23
1373.55	27
1374.62	25
1375.7	27.5
1376.78	24
1377.86	23.5
1378.93	27
1380.01	23.5
1381.09	26
1382.16	24.5
1383.24	28.5
1384.32	24
1385.39	26.5
1386.47	31
1387.54	25
1388.62	27
1389.69	25
1390.77	24
1391.84	26.5
1392.92	24.5
1393.99	22.5
1395.07	26
1396.14	26.5
1397.21	28
1398.29	25.5
1399.36	27.5
1400.44	26.5
1401.51	24
1402.58	25
1403.66	24.5
1404.73	29
1405.8	24
1406.87	29
1407.95	27.5
1409.02	28
1410.09	32
1411.16	30
1412.23	26.5
1413.3	28.5
1414.38	34
1415.45	31.5
1416.52	24.5
1417.59	33
1418.66	28
1419.73	28
1420.8	28
1421.87	26.5
1422.94	26.5
1424.01	22.5
1425.08	23
1426.15	26
1427.22	22.5
1428.29	26
1429.36	28
1430.43	29.5
1431.49	24.5
1432.56	25
1433.63	22.5
1434.7	24.5
1435.77	27.5
1436.83	23
1437.9	25
1438.97	25.5
1440.04	24
1441.1	25.5
1442.17	27
1443.24	22.5
1444.3	25.5
1445.37	26.5
1446.44	22.5
1447.5	24
1448.57	26
1449.63	28
1450.7	26.5
1451.77	23.5
1452.83	19.5
1453.9	23.5
1454.96	25.5
1456.03	22
1457.09	27
1458.15	22
1459.22	25.5
1460.28	27
1461.35	29.5
1462.41	19
1463.47	27
1464.54	29
1465.6	26
1466.66	26.5
1467.73	28
1468.79	25.5
1469.85	26.5
1470.91	25
1471.98	25
1473.04	28.5
1474.1	28
1475.16	25
1476.22	27.5
1477.28	25.5
1478.35	23.5
1479.41	27
1480.47	21
1481.53	24.5
1482.59	23.5
1483.65	31
1484.71	23.5
1485.77	23.5
1486.83	26
1487.89	23.5
1488.95	27
1490.01	24.5
1491.07	28
1492.13	28.5
1493.18	24.5
1494.24	22
1495.3	25.5
1496.36	26
1497.42	24.5
1498.48	23
1499.53	28.5
1500.59	27
1501.65	21
1502.71	23.5
1503.76	26
1504.82	26.5
1505.88	23.5
1506.93	22
1507.99	29.5
1509.05	27
1510.1	24
1511.16	25.5
1512.21	27
1513.27	26.5
1514.33	25
1515.38	31
1516.44	25
1517.49	25
1518.55	26
1519.6	21
1520.66	26.5
1521.71	28
1522.76	25
1523.82	23
1524.87	25
1525.93	26
1526.98	27.5
1528.03	26
1529.08	26
1530.14	20.5
1531.19	27.5
1532.24	24
1533.3	24
1534.35	25
1535.4	28
1536.45	28
1537.5	26
1538.56	27.5
1539.61	24
1540.66	19.5
1541.71	26
1542.76	21
1543.81	28
1544.86	23
1545.91	21
1546.96	29.5
1548.01	28
1549.06	21.5
1550.11	27
1551.16	28
1552.21	22
1553.26	28
1554.31	27
1555.36	25
1556.41	25.5
1557.46	25
1558.51	25
1559.56	27.5
1560.6	25.5
1561.65	26
1562.7	24.5
1563.75	29
1564.79	24
1565.84	27.5
1566.89	25
1567.94	26
1568.98	24
1570.03	22
1571.08	26
1572.12	25
1573.17	18
1574.22	24.5
1575.26	25
1576.31	26
1577.35	24.5
1578.4	25.5
1579.44	25
1580.49	26
1581.53	24.5
1582.58	23
1583.62	23
1584.67	23.5
1585.71	24
1586.76	25
1587.8	29.5
1588.84	27
1589.89	20
1590.93	25
1591.97	26
1593.02	25.5
1594.06	26.5
1595.1	27.5
1596.14	26
1597.19	25
1598.23	25
1599.27	21.5
1600.31	25.5
1601.36	28
1602.4	22.5
1603.44	27.5
1604.48	29
1605.52	24.5
1606.56	25
1607.6	24.5
1608.64	26
1609.68	27.5
1610.72	24.5
1611.76	24.5
1612.81	23
1613.84	26
1614.88	26.5
1615.92	22.5
1616.96	25
1618	30
1619.04	23.5
1620.08	27.5
1621.12	26
1622.16	24.5
1623.2	21.5
1624.23	22
1625.27	27.5
1626.31	23
1627.35	27.5
1628.39	23
1629.42	25
1630.46	28
1631.5	25.5
1632.53	25.5
1633.57	25
1634.61	23
1635.64	26.5
1636.68	22
1637.72	27
1638.75	25
1639.79	25.5
1640.82	25.5
1641.86	25.5
1642.89	27.5
1643.93	30
1644.96	23
1646	27
1647.03	26.5
1648.07	26
1649.1	25
1650.14	26
1651.17	25
1652.21	28.5
1653.24	23
1654.27	24
1655.31	25.5
1656.34	22.5
1657.37	26.5
1658.41	23.5
1659.44	24.5
1660.47	28
1661.5	26.5
1662.53	25
1663.57	23.5
1664.6	25
1665.63	27.5
1666.66	20.5
1667.69	25.5
1668.72	22.5
1669.76	21.5
1670.79	26
1671.82	24
1672.85	28
1673.88	26.5
1674.91	23.5
1675.94	26.5
1676.97	23.5
1678	28
1679.03	28.5
1680.06	28
1681.09	21.5
1682.12	29.5
1683.15	26
1684.17	28.5
1685.2	25
1686.23	27.5
1687.26	28
1688.29	24.5
1689.32	22.5
1690.34	23.5
1691.37	25
1692.4	27
1693.43	24
1694.45	23
1695.48	24.5
1696.51	22.5
1697.54	25.5
1698.56	24
1699.59	26
1700.61	24
1701.64	27
1702.67	23.5
1703.69	26.5
1704.72	27
1705.74	23
1706.77	23.5
1707.79	25
1708.82	28.5
1709.84	26
1710.87	27
1711.89	23
1712.92	23.5
1713.94	25
1714.97	22.5
1715.99	25.5
1717.01	23
1718.04	24
1719.06	22.5
1720.08	25.5
1721.11	21
1722.13	25
1723.15	28.5
1724.18	25
1725.2	24
1726.22	27
1727.24	29
1728.26	27
1729.29	24.5
1730.31	28.5
1731.33	24
1732.35	22.5
1733.37	24
1734.39	22.5
1735.41	25.5
1736.43	27
1737.45	27
1738.47	29
1739.5	22
1740.52	24.5
1741.53	27.5
1742.55	28
1743.57	23.5
1744.59	25.5
1745.61	26
1746.63	28
1747.65	23.5
1748.67	22
1749.69	26.5
1750.71	26
1751.72	25.5
1752.74	23
1753.76	29
1754.78	26
1755.8	22.5
1756.81	27
1757.83	23.5
1758.85	25.5
1759.87	25
1760.88	26
1761.9	24.5
1762.92	25.5
1763.93	28.5
1764.95	29
1765.96	27
1766.98	27
1768	26.5
1769.01	26.5
1770.03	28
1771.04	21.5
1772.06	26
1773.07	19.5
1774.09	22.5
1775.1	23
1776.12	24
1777.13	26
1778.15	27.5
1779.16	27
1780.17	26
1781.19	26
1782.2	25
1783.21	22.5
1784.23	25.5
1785.24	26
1786.25	26.5
1787.27	24
1788.28	24.5
1789.29	22
1790.3	24.5
1791.32	26.5
1792.33	26
1793.34	30
1794.35	27
1795.36	25.5
1796.38	28
1797.39	28
1798.4	27
1799.41	23.5
1800.42	21
1801.43	26
1802.44	26
1803.45	19
1804.46	21.5
1805.47	23
1806.48	25.5
1807.49	22
1808.5	24.5
1809.51	23
1810.52	24
1811.53	28
1812.53	30.5
1813.54	26.5
1814.55	24.5
1815.56	28
1816.57	26.5
1817.58	26.5
1818.59	26.5
1819.59	23
1820.6	23
1821.61	22.5
1822.62	25.5
1823.62	22.5
1824.63	24.5
1825.64	24
1826.64	24
1827.65	24
1828.66	22
1829.66	29
1830.67	27.5
1831.67	24.5
1832.68	24.5
1833.69	24
1834.69	27
1835.7	24
1836.7	26
1837.71	27
1838.71	22.5
1839.72	28
1840.72	26
1841.72	26.5
1842.73	26
1843.73	29.5
1844.74	24
1845.74	25
1846.74	23
1847.75	24
1848.75	21
1849.75	24
1850.76	27
1851.76	31
1852.76	23
1853.76	22
1854.77	25.5
1855.77	25
1856.77	24
1857.77	19.5
1858.78	24.5
1859.78	23
1860.78	24.5
1861.78	28.5
1862.78	23
1863.78	27
1864.78	22
1865.78	24
1866.78	24
1867.78	27.5
1868.78	23.5
1869.78	29.5
1870.78	25
1871.78	26.5
1872.78	26
1873.78	27
1874.78	24.5
1875.78	27
1876.78	25.5
1877.78	22.5
1878.78	23.5
1879.78	27
1880.77	23
1881.77	22.5
1882.77	22.5
1883.77	26.5
1884.77	24
1885.76	24
1886.76	24
1887.76	27.5
1888.75	22.5
1889.75	25.5
1890.75	25
1891.74	24
1892.74	24.5
1893.74	26
1894.73	23.5
1895.73	23.5
1896.73	23.5
1897.72	26.5
1898.72	24
1899.71	28
1900.71	22.5
1901.7	22.5
1902.7	24
1903.69	26
1904.69	26
1905.68	26.5
1906.68	25
1907.67	27
1908.66	24
1909.66	24
1910.65	26
1911.64	22
1912.64	25
1913.63	19.5
1914.62	24
1915.62	25
1916.61	24.5
1917.6	25
1918.6	23.5
1919.59	22.5
1920.58	25.5
1921.57	24
1922.56	24.5
1923.55	23.5
1924.55	24
1925.54	22
1926.53	25.5
1927.52	24
1928.51	21.5
1929.5	21
1930.49	24
1931.48	24
1932.47	24.5
1933.46	27.5
1934.45	26
1935.44	23
1936.43	28.5
1937.42	25
1938.41	27
1939.4	24.5
1940.39	24.5
1941.38	25.5
1942.37	26
1943.36	25
1944.35	25.5
1945.33	27
1946.32	24.5
1947.31	23
1948.3	23.5
1949.29	24
1950.27	21.5
1951.26	20
1952.25	26
1953.24	24.5
1954.22	26
1955.21	23
1956.2	24
1957.18	24.5
1958.17	25
1959.16	24.5
1960.14	25
1961.13	29.5
1962.11	24.5
1963.1	24
1964.08	27
1965.07	23.5
1966.05	24
1967.04	24.5
1968.02	22
1969.01	29
1969.99	24.5
1970.98	24
1971.96	20.5
1972.95	24.5
1973.93	26.5
1974.91	24
1975.9	25
1976.88	27
1977.86	24.5
1978.85	25
1979.83	25
1980.81	24.5
1981.8	25.5
1982.78	25.5
1983.76	24.5
1984.74	25.5
1985.73	27
1986.71	25
1987.69	26
1988.67	25.5
1989.65	26
1990.63	24
1991.62	23.5
1992.6	23
1993.58	25.5
1994.56	23
1995.54	25
1996.52	27
1997.5	25
1998.48	22
1999.46	23
2000.44	24
2001.42	22
2002.4	22.5
2003.38	26.5
2004.36	24.5
2005.34	23.5
2006.32	20
2007.29	24.5
2008.27	24
2009.25	21
2010.23	21
2011.21	26
2012.19	26
2013.17	23.5
2014.14	21.5
2015.12	23
2016.1	26.5
2017.07	25
2018.05	21
2019.03	21.5
2020.01	24.5
2020.98	24
2021.96	27.5
2022.94	28
2023.91	21
2024.89	23.5
2025.86	27.5
2026.84	23.5
2027.82	28.5
2028.79	22.5
2029.77	25
2030.74	23.5
2031.72	23.5
2032.69	20.5
2033.67	27
2034.64	24
2035.62	22
2036.59	21.5
2037.56	22.5
2038.54	23
2039.51	24
2040.49	22
2041.46	24.5
2042.43	24.5
2043.41	21.5
2044.38	24
2045.35	21
2046.32	21.5
2047.3	23.5
2048.27	27.5
2049.24	24.5
2050.21	25.5
2051.19	24
2052.16	23.5
2053.13	17.5
2054.1	24
2055.07	21.5
2056.05	24.5
2057.02	21
2057.99	24
2058.96	23.5
2059.93	23
2060.9	21.5
2061.87	21
2062.84	23.5
2063.81	21
2064.78	22.5
2065.75	25
2066.72	25.5
2067.69	22.5
2068.66	20.5
2069.63	21.5
2070.6	26
2071.57	25.5
2072.54	25
2073.5	24
2074.47	23.5
2075.44	21.5
2076.41	26
2077.38	21.5
2078.35	25
2079.31	24
2080.28	26
2081.25	24.5
2082.22	24
2083.18	21
2084.15	25
2085.12	23.5
2086.08	28.5
2087.05	21.5
2088.02	24
2088.98	25
2089.95	23
2090.92	19.5
2091.88	24
2092.85	24
2093.81	25
2094.78	22
2095.74	21.5
2096.71	24.5
2097.67	22.5
2098.64	24.5
2099.6	24.5
2100.57	26.5
2101.53	28
2102.5	22
2103.46	24.5
2104.42	20.5
2105.39	21.5
2106.35	24
2107.32	24.5
2108.28	27
2109.24	24
2110.21	23
2111.17	23
2112.13	22
2113.09	18
2114.06	25.5
2115.02	21
2115.98	25.5
2116.94	26
2117.91	26
2118.87	28
2119.83	25
2120.79	26
2121.75	25.5
2122.71	22
2123.67	25.5
2124.63	22
2125.6	23
2126.56	21.5
2127.52	23.5
2128.48	24
2129.44	25
2130.4	24
2131.36	27
2132.32	20.5
2133.28	25
2134.23	22.5
2135.19	24
2136.15	25.5
2137.11	26.5
2138.07	22
2139.03	22.5
2139.99	23
2140.95	23.5
2141.9	21.5
2142.86	25.4908
2143.82	21.5001
2144.78	24.9991
2145.74	23.0125
2146.69	23.0113
2147.65	24.3986
2148.61	25.5267
2149.57	21.3259
2150.52	23.8511
2151.48	24.1305
2152.44	21.7039
2153.39	21.2541
2154.35	23.3521
2155.31	23.7846
2156.26	22.7603
2157.22	24.3701
2158.17	21.0448
2159.13	20.1961
2160.08	21.1624
2161.04	24.1372
2161.99	19.8601
2162.95	21.3672
2163.91	23.1445
2164.86	25.4921
2165.81	23.2432
2166.77	24.2382
2167.72	22.3003
2168.68	24.1377
2169.63	26.2082
2170.58	24.5293
2171.54	23.7029
2172.49	23.0802
2173.45	23.7595
2174.4	22.8708
2175.35	24.9106
2176.31	23.6383
2177.26	23.3783
2178.21	25.5846
2179.16	20.0223
2180.12	24.9542
2181.07	21.5586
2182.02	21.9902
2182.97	20.8328
2183.92	20.9052
2184.88	24.623
2185.83	23.5936
2186.78	23.5374
2187.73	25.2067
2188.68	21.2282
2189.63	21.8531
2190.58	24.4326
2191.53	21.984
2192.49	21.0013
2193.43	21.7208
2194.39	24.9324
2195.34	21.0022
2196.28	23.3623
2197.24	21.6811
2198.19	21.5357
2199.13	22.1567
2200.08	20.4684
2201.03	22.3941
2201.98	23.1842
2202.93	22.534
2203.88	21.6724
2204.83	21.682
2205.78	24.0893
2206.73	22.449
2207.67	23.0674
2208.62	24.2416
2209.57	21.1791
2210.52	21.2466
2211.47	24.2253
2212.41	20.7215
2213.36	24.0992
2214.31	19.5783
2215.26	22.4409
2216.2	23.9595
2217.15	21.6897
2218.1	21.5191
2219.04	20.696
2219.99	21.4168
2220.93	23.5147
2221.88	22.1956
2222.83	22.7879
2223.77	22.3935
2224.72	22.7074
2225.66	22.9142
2226.61	21.2227
2227.55	22.2386
2228.5	22.7611
2229.44	21.246
2230.39	23.2318
2231.33	23.8193
2232.28	22.5228
2233.22	21.9272
2234.17	25.0834
2235.11	23.0306
2236.06	22.785
2237	21.0975
2237.94	23.5219
2238.89	21.8641
2239.83	21.3652
2240.06	21.5
2241.01	24.5
2241.96	22
2242.9	23.5
2243.85	22.5
2244.8	25.5
2245.75	21
2246.69	24
2247.64	23
2248.59	20.5
2249.53	24
2250.48	20.5
2251.43	22
2252.37	21.5
2253.32	23.5
2254.27	21.5
2255.21	24
2256.16	22
2257.1	21
2258.05	22
2259	21
2259.94	22
2260.89	20
2261.83	25.5
2262.78	25.5
2263.72	25
2264.67	24
2265.61	30
2266.56	23.5
2267.5	23
2268.44	26.5
2269.39	25.5
2270.33	24
2271.27	24
2272.22	22
2273.16	25
2274.1	26
2275.05	20
2275.99	20
2276.93	25.5
2277.88	23.5
2278.82	26
2279.76	21.5
2280.7	19.5
2281.65	24
2282.59	25.5
2283.53	23.5
2284.47	23
2285.41	22.5
2286.35	23
2287.29	25
2288.24	21.5
2289.18	22
2290.12	23.5
2291.06	21
2292	24
2292.94	21
2293.88	21.5
2294.82	20.5
2295.76	25
2296.7	23.5
2297.64	23
2298.58	24
2299.52	21
2300.46	23
2301.4	22.5
2302.34	23
2303.28	22
2304.21	21.5
2305.15	22.5
2306.09	24.5
2307.03	24
2307.97	23
2308.91	23
2309.84	20.5
2310.78	22.5
2311.72	26
2312.66	27.5
2313.59	22
2314.53	27.5
2315.47	21
2316.4	19.5
2317.34	27
2318.28	24.5
2319.22	23
2320.15	20.5
2321.09	23.5
2322.02	27
2322.96	25
2323.89	29
2324.83	23
2325.77	19
2326.7	24
2327.64	26
2328.57	21
2329.51	24.5
2330.44	22
2331.38	24.5
2332.31	23
2333.25	19
2334.18	25
2335.11	24
2336.05	28.5
2336.98	22.5
2337.92	23.5
2338.85	24.5
2339.78	24
2340.72	25
2341.65	21
2342.58	26
2343.52	28.5
2344.45	25
2345.38	26.5
2346.31	22.5
2347.25	23
2348.18	23.5
2349.11	23.5
2350.04	24
2350.97	20.5
2351.9	20.5
2352.84	25
2353.77	24
2354.7	26
2355.63	23.5
2356.56	24
2357.49	19
2358.42	25
2359.35	22
2360.28	26
2361.21	27
2362.14	25.5
2363.07	21
2364	28.5
2364.93	24.5
2365.86	26.5
2366.79	23
2367.72	21
2368.65	21
2369.58	25
2370.51	22.5
2371.44	27.5
2372.36	22.5
2373.29	20.5
2374.22	23.5
2375.15	23.5
2376.08	23.5
2377.01	24
2377.93	25
2378.86	22
2379.79	24.5
2380.72	23
2381.64	24.5
2382.57	25
2383.5	27.5
2384.42	21
2385.35	26
2386.28	24
2387.2	20
2388.13	22
2389.06	22
2389.98	25
2390.91	20.5
2391.83	22.5
2392.76	24
2393.69	22
2394.61	22
2395.54	26.5
2396.46	22.5
2397.39	21.5
2398.31	25
2399.23	26.5
2400.16	23.5
2401.08	19
2402.01	24.5
2402.93	22
2403.86	26
2404.78	27.5
2405.7	29
2406.63	24
2407.55	24.5
2408.47	23.5
2409.4	18
2410.32	25
2411.24	22.5
2412.17	27
2413.09	20
2414.01	24
2414.93	26.5
2415.85	28.5
2416.78	25
2417.7	28
2418.62	21.5
2419.54	24
2420.46	25
2421.38	22.5
2422.31	25
2423.23	24
2424.15	24
2425.07	24.5
2425.99	25.5
2426.91	20.5
2427.83	24.5
2428.75	24
2429.67	24.5
2430.59	25
2431.51	25.5
2432.43	25
2433.35	23
2434.27	23
2435.19	23
2436.11	23.5
2437.03	29
2437.94	28.5
2438.86	25.5
2439.78	26.5
2440.7	24.5
2441.62	22.5
2442.54	19
2443.46	20
2444.37	22.5
2445.29	21
2446.21	23
2447.13	24.5
2448.04	21
2448.96	26.5
2449.88	19
2450.8	23
2451.71	26
2452.63	21
2453.55	25
2454.46	28.5
2455.38	24
2456.29	25
2457.21	21.5
2458.13	23.5
2459.04	26.5
2459.96	22
2460.87	23
2461.79	20.5
2462.7	25
2463.62	26.5
2464.53	23.5
2465.45	27
2466.36	24.5
2467.28	25
2468.19	30.5
2469.11	23
2470.02	25
2470.93	21
2471.85	25.5
2472.76	26
2473.67	22.5
2474.59	23.5
2475.5	22.5
2476.42	26
2477.33	24.5
2478.24	22
2479.15	26
2480.07	22
2480.98	27.5
2481.89	22.5
2482.8	23
2483.72	28
2484.63	27
2485.54	23
2486.45	23
2487.36	23.5
2488.27	26.5
2489.19	24
2490.1	26
2491.01	24.5
2491.92	23.5
2492.83	22.5
2493.74	24.5
2494.65	27
2495.56	24
2496.47	25.5
2497.38	22
2498.29	23
2499.2	29
2500.11	23.5
2501.02	29
2501.93	24
2502.84	21
2503.75	24.5
2504.66	27
2505.57	26
2506.47	22
2507.38	25
2508.29	23
2509.2	23
2510.11	26.5
2511.02	25.5
2511.92	23
2512.83	26.5
2513.74	23.5
2514.65	24.5
2515.55	21.5
2516.46	24.5
2517.37	26
2518.28	24.5
2519.18	22.5
2520.09	24.5
2521	22
2521.9	23.5
2522.81	24
2523.72	22.5
2524.62	24
2525.53	23
2526.43	22.5
2527.34	27.5
2528.24	21
2529.15	23
2530.06	24.5
2530.96	27.5
2531.87	24
2532.77	22
2533.68	23
2534.58	24
2535.48	24.5
2536.39	22.5
2537.29	25
2538.2	27.5
2539.1	25.5
2540	25.5
2540.91	22.5
2541.81	24.5
2542.72	24.5
2543.62	23
2544.52	27
2545.42	25.5
2546.33	26
2547.23	23
2548.13	22
2549.04	25
2549.94	23.5
2550.84	25.5
2551.74	26.5
2552.64	25
2553.55	27
2554.45	22
2555.35	24
2556.25	25
2557.15	24.5
2558.05	25
2558.95	26
2559.85	22.5
2560.76	24
2561.66	23.5
2562.56	28.5
2563.46	24.5
2564.36	24
2565.26	25
2566.16	25
2567.06	23.5
2567.96	25
2568.86	26
2569.76	25
2570.66	22.5
2571.55	22
2572.45	26
2573.35	24.5
2574.25	25
2575.15	23.5
2576.05	23.5
2576.95	29
2577.84	27.5
2578.74	22
2579.64	26
2580.54	26
2581.44	22.5
2582.33	24.5
2583.23	23.5
2584.13	23
2585.03	26
2585.92	26
2586.82	22.5
2587.72	23
2588.61	27
2589.51	24
2590.41	24.5
2591.3	21
2592.2	24.5
2593.09	23
2593.99	23.5
2594.89	26
2595.78	23
2596.68	25
2597.57	25.5
2598.47	29.5
2599.36	25
2600.26	21.5
2601.15	22.5
2602.05	22.5
2602.94	25
2603.84	26
2604.73	22.5
2605.63	29.5
2606.52	31.5
2607.41	26
2608.31	25.5
2609.2	27
2610.09	25
2610.99	22.5
2611.88	26
2612.77	23.5
2613.67	24
2614.56	25
2615.45	24.5
2616.35	27.5
2617.24	23.5
2618.13	25.5
2619.02	22
2619.91	26
2620.81	24
2621.7	25.5
2622.59	24
2623.48	26.5
2624.37	25.5
2625.26	23
2626.15	26
2627.05	25
2627.94	23.5
2628.83	22.5
2629.72	26.5
2630.61	24
2631.5	22
2632.39	24
2633.28	29.5
2634.17	26
2635.06	24
2635.95	25.5
2636.84	28
2637.73	26.5
2638.62	23.5
2639.51	25.5
2640.4	23
2641.28	24.5
2642.17	25
2643.06	25
2643.95	23
2644.84	24.5
2645.73	23.5
2646.62	22
2647.5	22.5
2648.39	29
2649.28	24
2650.17	28.5
2651.05	23
2651.94	26.5
2652.83	28
2653.72	21
2654.6	25
2655.49	22
2656.38	21.5
2657.26	26
2658.15	25
2659.04	25.5
2659.92	23
2660.81	26
2661.69	28
2662.58	26
2663.47	26
2664.35	23
2665.24	25
2666.12	19.5
2667.01	24
2667.89	24
2668.78	27
2669.66	25.5
2670.55	25.5
2671.43	22
2672.32	24
2673.2	22
2674.08	25.5
2674.97	22
2675.85	24.5
2676.74	22
2677.62	21.5
2678.5	24.5
2679.39	23.5
2680.27	24
2681.15	24
2682.04	23
2682.92	29
2683.8	23.5
2684.68	22
2685.57	26.5
2686.45	25
2687.33	22
2688.21	27.5
2689.09	24
2689.98	24.5
2690.86	18
2691.74	24
2692.62	24
2693.5	30.5
2694.38	18
2695.27	24.5
2696.15	24.5
2697.03	26
2697.91	24.5
2698.79	28
2699.67	24
2700.55	23
2701.43	23
2702.31	27
2703.19	29
2704.07	28.5
2704.95	25
2705.83	22.5
2706.71	22.5
2707.59	23.5
2708.47	23.5
2709.34	21.5
2710.22	20
2711.1	23
2711.98	24
2712.86	21.5
2713.74	27
2714.62	24
2715.49	25
2716.37	27.5
2717.25	21.5
2718.13	20.5
2719.01	28.5
2719.88	25.5
2720.76	23
2721.64	22.5
2722.51	26
2723.39	22
2724.27	24.5
2725.14	26
2726.02	25.5
2726.9	22.5
2727.77	28.5
2728.65	24.5
2729.53	23.5
2730.4	22.5
2731.28	27
2732.15	24.5
2733.03	24.5
2733.91	27
2734.78	24
2735.66	24
2736.53	23
2737.41	27
2738.28	22
2739.16	23
2740.03	20
2740.9	25
2741.78	21
2742.65	22.5
2743.53	21.5
2744.4	23
2745.27	23
2746.15	20
2747.02	24.5
2747.89	27
2748.77	25
2749.64	23.5
2750.51	26
2751.39	29
2752.26	20
2753.13	22.5
2754.01	25.5
2754.88	20.5
2755.75	23.5
2756.62	25.5
2757.49	24
2758.37	27
2759.24	24
2760.11	27
2760.98	26
2761.85	27.5
2762.72	28
2763.59	22.5
2764.46	26
2765.34	25
2766.21	23
2767.08	23.5
2767.95	24
2768.82	22.5
2769.69	23
2770.56	23.5
2771.43	24
2772.3	25
2773.17	24
2774.04	25
2774.91	26
2775.78	19
2776.65	24.5
2777.51	28
2778.38	27
2779.25	23.5
2780.12	19
2780.99	30
2781.86	26
2782.73	27
2783.59	25
2784.46	23.5
2785.33	28
2786.2	25.5
2787.07	23.5
2787.93	23.5
2788.8	23
2789.67	21
2790.54	22
2791.4	26.5
2792.27	27
2793.14	24.5
2794	28.5
2794.87	25.5
2795.74	24.5
2796.6	25
2797.47	28.5
2798.34	21
2799.2	26.5
2800.07	24.5
2800.93	24.25
2801.8	23
2802.66	24.5
2803.53	27
2804.39	24.5
2805.26	22
2806.12	24.5
2806.99	26
2807.85	28.5
2808.72	24.5
2809.58	25.5
2810.45	26
2811.31	22
2812.18	22
2813.04	23.5
2813.9	25
2814.77	27
2815.63	25
2816.49	25
2817.36	24.5
2818.22	27.5
2819.08	27.5
2819.95	26.5
2820.81	24.5
2821.67	28.5
2822.53	26.5
2823.4	25.5
2824.26	24
2825.12	24
2825.98	28
2826.84	21
2827.71	26
2828.57	25
2829.43	30
2830.29	24.5
2831.15	24.5
2832.01	27
2832.88	25
2833.74	26.5
2834.6	24.5
2835.46	27
2836.32	28.5
2837.18	24.5
2838.04	26
2838.9	21.5
2839.76	23.5
2840.62	24.5
2841.48	26.5
2842.34	24.5
2843.2	28.5
2844.06	26.5
2844.92	24
2845.78	24.5
2846.63	28
2847.49	26
2848.35	22
2849.21	24
2850.07	26.5
2850.93	23.5
2851.79	29
2852.64	28
2853.5	27.5
2854.36	21.5
2855.22	22.5
2856.08	24.5
2856.93	27
2857.79	26.5
2858.65	27
2859.51	27.5
2860.36	19.5
2861.22	25.5
2862.08	24
2862.93	23.5
2863.79	24
2864.65	24
2865.5	25.5
2866.36	27
2867.22	28
2868.07	27.5
2868.93	25.5
2869.78	29.5
2870.64	29.5
2871.49	25
2872.35	27
2873.21	28
2874.06	28.5
2874.91	27
2875.77	28
2876.62	28
2877.48	34
2878.33	29
2879.19	29
2880.04	32
2880.9	27
2881.75	27
2882.6	28
2883.46	27.5
2884.31	30
2885.17	29
2886.02	32.5
2886.87	31
2887.73	33
2888.58	34
2889.43	33.5
2890.28	33.5
2891.14	29.5
2891.99	35.5
2892.84	35
2893.69	32
2894.55	45
2895.4	38.5
2896.25	38
2897.1	46
2897.95	43
2898.8	47
2899.66	54
2900.51	54
2901.36	57
2902.21	51
2903.06	52
2903.91	53
2904.76	56.5
2905.61	56
2906.46	56
2907.31	53
2908.16	52.5
2909.01	53.5
2909.86	48
2910.71	47
2911.56	53
2912.41	44
2913.26	44
2914.11	43
2914.96	37
2915.81	38.5
2916.66	35.5
2917.51	34.5
2918.36	36
2919.2	35.5
2920.05	32.5
2920.9	31
2921.75	32
2922.6	34
2923.45	29.5
2924.29	31.5
2925.14	29
2925.99	27.5
2926.84	26
2927.68	29.5
2928.53	31.5
2929.38	32
2930.23	27.5
2931.07	25.5
2931.92	29.5
2932.77	25.5
2933.61	22.5
2934.46	29
2935.3	24.5
2936.15	26
2937	29
2937.84	27.5
2938.69	28
2939.53	27.5
2940.38	27
2941.23	29.5
2942.07	31.5
2942.92	31
2943.76	26
2944.61	25
2945.45	31.5
2946.3	23.5
2947.14	30
2947.98	30.5
2948.83	24.5
2949.67	28
2950.52	27
2951.36	34
2952.2	27.5
2953.05	31
2953.89	32
2954.74	28.5
2955.58	29
2956.42	27
2957.27	30
2958.11	33.5
2958.95	32
2959.79	38
2960.64	36
2961.48	35.5
2962.32	34
2963.16	34.5
2964.01	35.5
2964.85	42
2965.69	34.5
2966.53	36.5
2967.37	36
2968.21	39
2969.06	33
2969.9	37.5
2970.74	36
2971.58	32.4927
2972.42	34.3888
2973.26	32.421
2974.1	34.2838
2974.94	30.4105
2975.78	30.6985
2976.62	32.28
2977.46	30.4709
2978.3	30.0995
2979.14	25.7979
2979.98	26.0561
2980.82	22.0743
2981.66	26.5501
2982.5	26.0646
2983.34	24.1124
2984.18	22.8393
2985.02	19.0664
2985.86	25.9911
2986.7	26.4628
2987.54	25.2821
2988.38	24.8322
2989.21	25.2383
2990.05	21.1846
2990.89	26.2944
2991.73	23.8838
2992.57	25.0562
2993.41	26.0784
2994.24	21.5748
2995.08	24.7097
2995.92	25.9106
2996.76	25.5263
2997.59	26.3516
2998.43	24.6578
2999.27	21.971
3000.1	22.3263
3000.94	23.9578
3001.78	21.9919
3002.61	23.4506
3003.45	23.8131
3004.29	23.6705
3005.12	25.1695
3005.96	20.688
3006.8	21.1227
3007.63	22.5968
3008.47	22.3505
3009.3	22
3010.14	23.3175
3010.97	23.2246
3011.81	23.3712
3012.64	22.2806
3013.48	22.4786
3014.31	22.7595
3015.15	22.74
3015.98	22.1282
3016.82	23.183
3017.65	23.911
3018.49	22.3887
3019.32	20.9433
3020.16	22.7038
3020.99	21.658
3021.82	22.9667
3022.66	23.0749
3023.49	21.2702
3024.32	21.9794
3025.16	18.301
3025.99	21.8159
3026.82	22.0316
3027.66	22.7198
3028.49	23.4356
3029.32	22.2085
3030.16	19.3627
3030.99	21.3525
3031.82	22.6205
3032.65	22.3812
3033.49	22.5327
3034.32	23.489
3035.15	22.666
3035.98	22.6932
3036.81	22.4858
3037.64	23.1458
3038.48	23.4644
3039.31	24.3879
3040.14	22.9224
3040.97	22.0834
3041.8	21.8083
3042.63	22.5094
3043.46	22.0051
3044.29	20.2935
3045.12	23.792
3045.95	24.3723
3046.78	23.245
3047.61	22.362
3048.44	23.5502
3049.27	25.2908
3050.1	22.8111
3050.93	21.644
3051.76	22.7766
3052.59	22.0417
3053.42	22.0218
3054.25	23.8613
3055.08	25.405
3055.91	23.9258
3056.74	24.163
3057.26	22
3058.09	27
3058.92	24
3059.76	20
3060.59	24.5
3061.42	24.5
3062.26	22
3063.09	20.5
3063.92	25
3064.75	22
3065.59	22
3066.42	24.5
3067.25	24
3068.08	22.5
3068.91	23.5
3069.74	26
3070.58	24.5
3071.41	21
3072.24	23.5
3073.07	23
3073.9	21
3074.73	24.5
3075.56	26
3076.39	25.5
3077.22	24.5
3078.05	22
3078.88	24
3079.71	24.5
3080.55	25.5
3081.38	26
3082.2	25
3083.03	22
3083.86	24
3084.69	26.5
3085.52	27
3086.35	24.5
3087.18	21
3088.01	21.5
3088.84	21
3089.67	25
3090.5	25
3091.33	22
3092.15	25.5
3092.98	22
3093.81	23.5
3094.64	21.5
3095.47	23.5
3096.29	23.5
3097.12	24.5
3097.95	23
3098.78	25
3099.6	21.5
3100.43	24.5
3101.26	22
3102.09	23.5
3102.91	19
3103.74	21.5
3104.57	25
3105.39	24.5
3106.22	21
3107.05	19
3107.87	22
3108.7	23.5
3109.52	22.5
3110.35	25.5
3111.18	23
3112	22
3112.83	22.5
3113.65	24
3114.48	20.5
3115.3	27.5
3116.13	19
3116.95	21
3117.78	22
3118.6	24
3119.43	25
3120.25	24.5
3121.08	25.5
3121.9	20.5
3122.73	23
3123.55	21.5
3124.37	23
3125.2	23.5
3126.02	24
3126.84	19
3127.67	23
3128.49	23
3129.31	24
3130.14	19.5
3130.96	23
3131.78	23
3132.61	27
3133.43	15.5
3134.25	20.5
3135.07	21.5
3135.9	25
3136.72	20
3137.54	23.5
3138.36	25
3139.18	25
3140.01	29.5
3140.83	24
3141.65	20
3142.47	23
3143.29	25.5
3144.11	21
3144.93	21
3145.75	19
3146.58	21
3147.4	27
3148.22	25.5
3149.04	24.5
3149.86	22.5
3150.68	26
3151.5	20.5
3152.32	24.5
3153.14	23
3153.96	22
3154.78	23.5
3155.6	21.5
3156.42	25.5
3157.23	22
3158.05	24.5
3158.87	21.5
3159.69	25
3160.51	23.5
3161.33	22
3162.15	22
3162.97	29
3163.79	23.5
3164.6	23.5
3165.42	21
3166.24	25
3167.06	25
3167.88	23.5
3168.69	23.5
3169.51	24
3170.33	23
3171.15	25.5
3171.96	23
3172.78	23.5
3173.6	18.5
3174.41	25.5
3175.23	24.5
3176.05	22.5
3176.86	25
3177.68	24
3178.5	22
3179.31	26.5
3180.13	23
3180.95	27
3181.76	24
3182.58	20
3183.39	22.5
3184.21	20.5
3185.02	24
3185.84	23
3186.65	26.5
3187.47	22.5
3188.28	24.5
3189.1	23
3189.91	24
3190.73	21
3191.54	24
3192.36	23.5
3193.17	25.5
3193.99	26
3194.8	25
3195.61	24.5
3196.43	26.5
3197.24	21
3198.05	25.5
3198.87	24.5
3199.68	22.5
3200.49	22
3201.31	20.5
3202.12	20
3202.93	28
3203.75	24
3204.56	21
3205.37	21.5
3206.18	22
3207	25
3207.81	22
3208.62	25
3209.43	23.5
3210.24	20
3211.06	23
3211.87	26.5
3212.68	27
3213.49	25.5
3214.3	26
3215.11	24
3215.92	23
3216.74	24
3217.55	24
3218.36	21
3219.17	23
3219.98	22
3220.79	22
3221.6	27.5
3222.41	24
3223.22	23
3224.03	22
3224.84	25
3225.65	23.5
3226.46	26.5
3227.27	19.5
3228.08	24.5
3228.89	22
3229.7	26.5
3230.5	24
3231.31	27.5
3232.12	24.5
3232.93	26.5
3233.74	26.5
3234.55	24
3235.36	22
3236.16	20
3236.97	22
3237.78	23.5
3238.59	25
3239.4	25
3240.2	24
3241.01	21
3241.82	22
3242.63	25.5
3243.43	23
3244.24	22
3245.05	21
3245.86	23
3246.66	25.5
3247.47	22
3248.28	26.5
3249.08	25
3249.89	21
3250.69	23.5
3251.5	24
3252.31	23
3253.11	25.5
3253.92	23.5
3254.72	26
3255.53	26.5
3256.34	24.5
3257.14	28
3257.95	30.5
3258.75	27.5
3259.56	24.5
3260.36	24
3261.17	23
3261.97	27.5
3262.77	24
3263.58	27.5
3264.38	27
3265.19	23
3265.99	23
3266.8	23
3267.6	27.5
3268.4	22
3269.21	22
3270.01	25.5
3270.81	21
3271.62	21
3272.42	22.5
3273.22	24
3274.03	20.5
3274.83	24
3275.63	20.5
3276.43	23
3277.24	25.5
3278.04	26
3278.84	22.5
3279.64	22.5
3280.45	21.5
3281.25	25
3282.05	24
3282.85	23
3283.65	23
3284.46	25
3285.26	23.5
3286.06	26
3286.86	20.5
3287.66	23
3288.46	25
3289.26	21.5
3290.06	25
3290.86	22.5
3291.66	23.5
3292.46	25.5
3293.26	25.5
3294.06	26
3294.86	21
3295.66	22.5
3296.46	27.5
3297.26	23.5
3298.06	26
3298.86	26.5
3299.66	22.5
3300.46	25.5
3301.26	25.5
3302.06	21
3302.86	26
3303.66	24
3304.46	26.5
3305.26	20
3306.05	21
3306.85	23.5
3307.65	20.5
3308.45	26
3309.25	22.5
3310.04	24
3310.84	23
3311.64	25
3312.44	27
3313.24	23.5
3314.03	23
3314.83	26.5
3315.63	23
3316.42	24.5
3317.22	25
3318.02	23.5
3318.82	26.5
3319.61	20
3320.41	24
3321.2	24
3322	26
3322.8	22
3323.59	25
3324.39	23.5
3325.19	25
3325.98	24.5
3326.78	23
3327.57	23
3328.37	21
3329.16	21.5
3329.96	27.5
3330.75	24
3331.55	25
3332.34	22
3333.14	20
3333.93	24.5
3334.73	22.5
3335.52	23
3336.32	22.5
3337.11	24.5
3337.9	27
3338.7	25
3339.49	22
3340.29	26.5
3341.08	26.5
3341.87	27
3342.67	21.5
3343.46	25
3344.25	27.5
3345.05	21
3345.84	24
3346.63	19
3347.42	25.5
3348.22	20
3349.01	24.5
3349.8	24
3350.59	21
3351.39	26.5
3352.18	26.5
3352.97	24
3353.76	26.5
3354.55	26
3355.35	22.5
3356.14	23
3356.93	24
3357.72	26.5
3358.51	27
3359.3	25
3360.09	23.5
3360.88	25
3361.67	27
3362.47	24
3363.26	21
3364.05	24.5
3364.84	25
3365.63	22
3366.42	23
3367.21	26
3368	23
3368.79	22.5
3369.58	22
3370.37	23.5
3371.16	23
3371.95	26
3372.73	23.5
3373.52	27
3374.31	25.5
3375.1	23.5
3375.89	26
3376.68	22
3377.47	29
3378.26	21
3379.04	26.5
3379.83	25
3380.62	26
3381.41	20
3382.2	22
3382.98	25.5
3383.77	21.5
3384.56	22
3385.35	23
3386.14	24
3386.92	22
3387.71	24.5
3388.5	23
3389.28	23
3390.07	25.5
3390.86	25.5
3391.64	25
3392.43	22
3393.22	26
3394	23
3394.79	24
3395.58	23.5
3396.36	25
3397.15	24.5
3397.93	26
3398.72	26.5
3399.5	23
3400.29	22
3401.07	23
3401.86	22
3402.65	26
3403.43	26.5
3404.22	24
3405	25.5
3405.79	26
3406.57	21
3407.35	24.5
3408.14	23.5
3408.92	27
3409.71	24.5
3410.49	22
3411.27	21.5
3412.06	23
3412.84	25.5
3413.63	19.5
3414.41	24
3415.19	23.5
3415.98	24.5
3416.76	25
3417.54	23
3418.32	25.5
3419.11	22.5
3419.89	23
3420.67	25.5
3421.46	29
3422.24	26.5
3423.02	21
3423.8	28
3424.58	26
3425.37	27.5
3426.15	24
3426.93	24
3427.71	24
3428.49	24
3429.27	18
3430.06	24
3430.84	26
3431.62	30
3432.4	24.5
3433.18	25
3433.96	24
3434.74	23.5
3435.52	21
3436.3	23.5
3437.08	25
3437.86	25
3438.64	21
3439.42	25.5
3440.2	24
3440.98	25
3441.76	19
3442.54	25.5
3443.32	23.5
3444.1	23
3444.88	24.5
3445.66	28
3446.44	23
3447.22	30.5
3448	24.5
3448.78	24
3449.55	18.5
3450.33	22.5
3451.11	22.5
3451.89	26
3452.67	26
3453.45	23
3454.22	22
3455	24
3455.78	25
3456.56	25
3457.33	24
3458.11	23
3458.89	20
3459.67	24
3460.44	22
3461.22	24
3462	22.5
3462.77	22.5
3463.55	25
3464.33	24.5
3465.1	22
3465.88	24
3466.66	24.5
3467.43	22.5
3468.21	24.5
3468.99	25
3469.76	24
3470.54	25.5
3471.31	22.5
3472.09	24.5
3472.86	24
3473.64	24
3474.41	24
3475.19	25.5
3475.96	24.5
3476.74	21
3477.51	21
3478.29	23
3479.06	31
3479.84	23
3480.61	26
3481.39	24
3482.16	26.5
3482.93	24
3483.71	22
3484.48	26
3485.26	25.5
3486.03	27
3486.8	25
3487.58	25.5
3488.35	22
3489.12	18
3489.9	24
3490.67	21
3491.44	28
3492.21	26
3492.99	21
3493.76	21.5
3494.53	25
3495.3	22
3496.08	25.5
3496.85	23
3497.62	25
3498.39	26
3499.16	22.5
3499.94	23.5
