#Acq. time (s)=	5
#Accumulations=	5
#Range (cm-¹)=	100...3500
#Windows=	4
#Autofocus=	Off
#AutoExposure=	Off
#Spike filter=	Multiple accum.
#Delay time (s)=	0
#Binning=	1
#Readout mode=	Signal
#DeNoise=	Off
#ICS correction=	Off
#Dark correction=	Off
#Inst. Process=	Off
#Instrument=	LabRAM HR Evol
#Detector=	Syncerity OE
#Objective=	x100_VIS
#Grating=	600 (500nm)
#ND Filter=	25%
#Laser=	633nm_Edge
#Hole=	100.021
#Range=	Visible
#Project=	verificaciones
#Sample=	a3
#Site=	lined
#Title=	bolusa3lined
#Remark=	
#Date=	12.01.2026 16:27
#Acquired=	12.01.2026 16:27:22
100.666	24.5
101.95	24.5
103.233	29
104.516	25.5
105.799	29
107.083	27
108.365	30
109.648	23.5
110.93	27
112.212	27
113.493	27.5
114.775	26
116.056	25
117.337	27
118.618	29
119.898	27
121.178	27
122.459	28
123.739	26
125.018	28.5
126.298	26.5
127.577	24.5
128.856	22.5
130.135	31
131.414	26.5
132.692	27.5
133.971	24.5
135.249	30
136.525	28
137.803	31.5
139.08	26
140.357	28
141.634	26.5
142.911	29.5
144.188	29.5
145.464	25
146.74	30
148.015	26
149.291	30.5
150.566	29.5
151.842	27.5
153.117	27
154.392	24.5
155.665	33.5
156.939	27.5
158.214	30
159.488	28.5
160.76	31
162.034	34
163.307	33.5
164.581	27.5
165.854	26.5
167.125	30.5
168.398	28
169.67	23
170.941	30
172.213	29.5
173.485	32
174.756	31
176.026	31
177.298	31.5
178.569	32
179.838	29
181.109	27
182.379	30.5
183.648	30.5
184.918	27
186.187	30.5
187.455	30
188.725	30
189.992	29
191.261	31.5
192.53	29.5
193.797	28
195.065	26
196.332	32
197.6	31.5
198.866	29.5
200.134	29
201.401	27
202.667	30.5
203.933	26
205.199	27
206.465	28.5
207.73	30.5
208.996	27
210.26	28
211.526	26
212.79	29
214.055	25.5
215.319	28
216.582	26.5
217.847	29
219.11	25.5
220.374	32
221.636	29
222.9	27
224.162	25.5
225.424	26
226.687	29.5
227.949	25
229.212	26.5
230.473	27.5
231.734	26.5
232.996	25
234.256	25.5
235.517	26
236.778	26
238.038	27.5
239.298	26
240.559	24
241.818	23.5
243.077	27
244.337	27
245.596	27
246.854	24
248.113	27
249.372	28.5
250.63	27.5
251.887	26.5
253.145	28.5
254.404	30
255.661	26
256.917	28.5
258.174	28.5
259.432	28
260.688	18
261.944	28
263.2	24.5
264.456	28
265.711	24
266.968	28.5
268.223	27
269.477	28.5
270.732	25.5
271.986	27
273.24	25
274.494	25
275.748	24.5
277.003	26
278.257	26.5
279.51	24.5
280.763	25.5
282.015	25.5
283.268	28
284.52	24
285.773	23
287.024	26.5
288.276	25.5
289.528	28
290.779	28
292.03	25
293.281	27
294.532	29
295.782	25
297.033	29
298.283	24.5
299.533	24
300.783	27
302.032	24
303.281	25
304.531	22
305.78	23.5
307.028	28.5
308.275	26.5
309.524	26
310.772	29
312.02	24
313.267	24
314.515	27
315.762	28
317.009	23
318.255	25
319.501	18.5
320.748	27
321.994	28.5
323.24	28
324.486	26.5
325.731	30
326.976	31
328.221	22
329.466	26
330.71	27.5
331.955	25
333.199	25
334.443	26
335.686	26
336.93	29
338.174	27.5
339.417	25
340.659	22
341.902	25.5
343.145	25.5
344.386	27.5
345.629	24
346.871	30
348.112	26
349.354	27
350.595	28
351.836	24
353.077	30
354.318	30.5
355.557	25.5
356.798	25
358.037	25.5
359.277	26.5
360.518	25
361.756	27
362.996	25.5
364.234	29
365.473	27
366.711	27
367.95	26
369.187	24.5
370.426	25
371.662	29.5
372.901	29
374.137	26
375.375	28
376.611	30
377.848	25.5
379.084	23.5
380.321	28
381.556	26.5
382.793	24
384.027	24
385.264	24
386.498	25.5
387.732	26
388.968	23
390.202	30.5
391.437	21
392.671	22.5
393.904	29
395.138	29.5
396.371	24.5
397.604	25
398.838	26
400.07	29.5
401.302	26
402.536	27
403.768	19
404.999	23
406.232	25.5
407.463	28.5
408.694	28
409.925	23.5
411.157	23.5
412.387	25
413.617	28
414.847	29
416.078	25
417.308	27
418.537	28
419.767	27
420.997	27.5
422.226	27.5
423.454	26
424.683	29
425.911	25.5
427.139	29
428.368	27
429.596	25.5
430.823	27.5
432.05	27
433.277	25.5
434.504	28.5
435.731	30
436.957	28.5
438.185	30
439.411	27
440.637	26.5
441.862	25
443.088	26
444.313	24
445.538	29
446.763	20.5
447.988	27
449.212	26.5
450.436	27
451.661	28.5
452.884	28.5
454.108	26.5
455.332	24.5
456.555	24
457.778	29.5
459.001	26
460.224	28.5
461.446	26.5
462.668	29
463.891	26.5
465.111	28
466.333	30.5
467.554	25.5
468.776	25.5
469.997	29.5
471.218	28.5
472.439	31.5
473.659	32.5
474.878	23.5
476.098	32
477.318	33.5
478.538	31
479.758	32.5
480.977	33
482.195	34
483.414	32.5
484.633	36
485.851	35.5
487.07	30.5
488.287	32
489.505	34.5
490.723	36.5
491.94	35
493.156	38.5
494.374	31
495.591	38.5
496.806	32.5
498.023	29
499.239	27
500.456	26.5
501.67	31.5
502.886	32.5
504.102	30.5
505.316	26.5
506.531	30
507.745	32
508.96	31.5
510.175	26
511.388	28
512.602	22
513.815	25
515.029	25.5
516.243	29
517.455	29.5
518.669	28
519.88	32
521.093	28.5
522.305	28.5
523.518	24
524.729	29
525.941	26
527.151	26
528.363	30
529.574	27.5
530.785	27.5
531.995	27.5
533.206	28.5
534.416	26.5
535.626	26
536.835	26.5
538.046	29
539.254	20.5
540.463	29
541.673	24.5
542.881	25
544.09	27
545.298	29.5
546.506	28.5
547.714	26
548.922	27
550.13	24
551.337	27
552.544	27
553.751	30
554.958	27.5
556.164	22.5
557.37	27
558.577	26
559.782	24.5
560.987	23
562.194	22
563.399	22.5
564.604	27.5
565.808	29
567.014	31
568.218	25.5
569.422	26
570.626	28
571.829	26.5
573.034	26.5
574.237	25.5
575.44	23.5
576.643	28
577.846	27
579.048	23.5
580.252	24.5
581.454	27
582.656	25
583.857	24.5
585.059	29
586.26	28.5
587.461	28
588.662	29.5
589.863	28
591.065	25
592.265	28
593.465	24.5
594.665	28.5
595.865	28.5
597.065	25.5
598.264	25.5
599.463	26
600.662	24.5
601.861	25
603.06	28
604.258	27
605.457	29.5
606.655	25
607.853	25.5
609.05	23.5
610.248	28.5
611.444	21
612.641	29.5
613.838	27.5
615.034	29
616.231	23
617.427	29
618.624	27
619.82	25
621.015	27
622.21	26.5
623.405	27.5
624.6	27
625.795	26
626.99	28.5
628.185	27
629.378	27.5
630.572	24
631.766	30
632.96	23.5
634.154	23.5
635.346	28
636.54	28.5
637.733	27
638.926	24.5
640.117	22
641.31	31.5
642.502	24.5
643.693	27
644.885	26
646.077	32
647.267	30.5
648.459	25.5
649.65	25.5
650.84	29
652.031	25
653.222	28.5
654.411	28.5
655.601	25
656.791	29.5
657.98	26.5
659.17	28.5
660.358	32
661.547	28
662.737	28
663.924	22
665.113	27
666.3	23
667.489	30
668.676	30.5
669.864	30.5
671.05	32
672.238	25
673.424	24.5
674.612	27
675.798	26
676.985	25
678.17	28
679.357	30
680.542	29
681.728	28
682.913	27.5
684.097	30
685.283	25.5
686.467	31
687.652	28
688.836	25
690.02	28
691.205	26
692.388	28.5
693.571	31
694.755	31
695.938	31
697.12	33
698.304	28
699.486	30.5
700.668	30
701.851	32
703.032	30
704.214	29
705.395	33.5
706.577	33.5
707.758	33
708.939	34.5
710.119	33.5
711.301	31
712.481	29.5
713.661	32
714.84	31.5
716.02	31
717.201	29
718.38	26
719.559	25
720.737	30
721.916	30.5
723.094	27
724.274	26
725.452	21.5
726.63	27.5
727.808	26.5
728.985	25
730.162	30
731.339	23.5
732.516	24.5
733.693	30
734.87	22.5
736.046	27
737.222	28
738.398	27.5
739.574	27.5
740.75	21.5
741.925	26
743.1	24
744.276	27
745.45	24.5
746.625	27
747.8	25.5
748.974	26.5
750.148	27
751.322	27.5
752.496	24.5
753.67	27.5
754.843	26
756.016	26.5
757.189	29.5
758.362	25.5
759.534	25
760.706	32
761.878	27
763.051	27
764.223	26
765.394	28.5
766.565	25
767.736	26.5
768.907	29
770.078	30
771.249	27.5
772.419	26
773.589	24
774.759	29.5
775.93	24
777.098	27.5
778.268	29
779.438	24.5
780.607	24.5
781.775	28
782.944	27.5
784.113	24.5
785.28	24.5
786.449	26
787.617	26
788.784	26
789.952	29.5
791.12	28
792.286	27
793.453	30.5
794.62	29.5
795.786	29
796.953	28
798.118	27
799.285	24.5
800.45	26.5
801.616	29
802.782	23.5
803.946	25
805.112	27.5
806.276	24
807.441	24
808.605	25.5
809.77	27
810.933	26.5
812.098	22
813.261	27
814.425	31
815.588	30
816.75	24.5
817.914	24
819.076	28.5
820.239	26
821.401	26
822.564	23
823.725	24.5
824.886	25.5
826.048	23
827.209	26.5
828.37	29
829.532	30
830.692	28
831.852	23.5
833.013	24
834.173	24
835.333	29.5
836.493	27.5
837.653	22.5
838.812	29
839.972	28
841.13	25
842.289	28
843.447	26.5
844.607	24.5
845.765	27
846.922	27.5
848.08	26
849.237	27.5
850.396	28
851.553	25
852.71	28.5
853.867	28.5
855.023	29
856.179	25
857.337	24.5
858.493	30
859.649	24
860.804	26
861.96	28
863.115	31
864.27	28
865.425	22
866.58	28
867.734	28.5
868.888	26.5
870.043	30
871.197	25
872.35	30.5
873.504	26
874.658	27
875.811	26
876.964	28.5
878.117	25.5
879.27	30
880.422	23.5
881.575	29
882.727	29
883.879	23
885.031	28.5
886.182	21
887.334	24
888.485	22.5
889.636	25
890.787	24
891.937	21.5
893.088	21.5
894.238	25.5
895.388	23.5
896.538	27
897.688	26
898.837	26
899.986	24.5
901.136	30.5
902.285	24
903.434	27.5
904.581	22.5
905.73	28
906.878	26
908.027	26.5
909.174	27
910.321	26
911.469	27
912.617	24.5
913.763	22
914.91	26
916.057	24.5
917.203	23.5
918.35	27
919.496	26.5
920.641	21.5
921.787	27.5
922.933	27.5
924.078	28
925.224	30
926.368	26.5
927.513	23.5
928.658	26
929.802	24
930.946	24
932.09	27
933.234	25
934.377	26.5
935.521	26
936.664	25.5
937.807	24
938.95	24
940.093	24
941.235	27
942.378	27
943.519	26
944.662	26.5
945.803	26
946.946	26
948.086	23.5
949.227	28
950.369	28
951.509	26
952.651	23.5
953.79	25.5
954.93	27
956.071	22
957.211	21
958.35	23.5
959.49	20
960.629	26
961.768	23
962.908	26.5
964.046	25
965.184	27.5
966.323	23
967.461	23
968.599	30
969.736	26
970.875	27
972.012	27
973.149	22
974.286	27
975.424	24
976.56	29
977.697	26
978.833	30.5
979.969	23
981.104	23.5
982.241	27
983.377	28
984.512	23
985.647	24
986.782	26.5
987.916	25
989.051	24
990.185	23
991.321	26.5
992.455	23.5
993.589	21.5
994.722	26
995.856	26
996.989	24
998.122	25
999.255	26
1000.39	26.5
1001.52	29
1002.65	23.5
1003.79	25.5
1004.92	27
1006.05	23
1007.18	23
1008.31	27.5
1009.44	26
1010.57	22.5
1011.7	26
1012.84	22
1013.97	24.5
1015.1	20.5
1016.23	30
1017.36	22
1018.49	26.5
1019.62	26
1020.75	22
1021.88	26.5
1023	22.5
1024.13	23
1025.26	23
1026.39	26
1027.52	27.5
1028.65	24
1029.78	29.5
1030.9	21.5
1032.03	23
1033.16	22
1034.29	23
1035.41	22
1036.54	27
1037.67	23
1038.79	23.5
1039.92	25.5
1041.04	27
1042.17	24
1043.3	26
1044.42	23.5
1045.55	25.5
1046.67	25
1047.8	23
1048.92	26.5
1050.05	28
1051.17	25
1052.3	24
1053.42	26
1054.54	24
1055.67	20
1056.79	23
1057.91	28
1059.04	22.5
1060.16	23.5
1061.28	25.5
1062.41	22.5
1063.53	22.5
1064.65	23.5
1065.77	25.5
1066.9	25.5
1068.02	26.5
1069.14	22
1070.26	24
1071.38	22.5
1072.5	28.5
1073.62	23.5
1074.74	23
1075.86	22
1076.98	25
1078.1	26
1079.22	26.5
1080.34	23
1081.46	24
1082.58	23.5
1083.7	24.5
1084.82	23.5
1085.94	25
1087.06	28
1088.18	27
1089.29	27
1090.41	25.5
1091.53	27
1092.65	22
1093.77	25.5
1094.88	21
1096	28
1097.12	23.5
1098.23	26
1099.35	26.5
1100.47	21.5
1101.58	27.5
1102.7	24
1103.82	22.5
1104.93	25
1106.05	26.5
1107.16	24.5
1108.28	24.5
1109.39	22
1110.51	22.5
1111.62	22
1112.74	24
1113.85	23.5
1114.96	25.5
1116.08	25.5
1117.19	26
1118.31	24
1119.42	24
1120.53	22
1121.65	22.5
1122.76	23
1123.87	20.5
1124.98	26.5
1126.1	25
1127.21	22.5
1128.32	22.5
1129.43	24
1130.54	27
1131.65	20
1132.76	26.5
1133.88	22
1134.99	24
1136.1	28.5
1137.21	23
1138.32	21.5
1139.43	23.5
1140.54	22.5
1141.65	26
1142.76	21
1143.87	24.5
1144.98	25.5
1146.08	26
1147.19	23.5
1148.3	25
1149.41	22
1150.52	26.5
1151.63	28.5
1152.73	25.5
1153.84	26
1154.95	24.5
1156.06	27
1157.17	23.5
1158.27	24
1159.38	24.5
1160.49	25
1161.59	21.5
1162.7	23
1163.8	23
1164.91	27.5
1166.02	25
1167.12	26.5
1168.23	29.5
1169.33	25
1170.44	24
1171.54	23.5
1172.65	25
1173.75	22.5
1174.86	26
1175.96	23
1177.06	23.5
1178.17	25
1179.27	27.5
1180.37	23.5
1181.48	23
1182.58	26
1183.68	24.5
1184.79	25
1185.89	24.5
1186.99	23.5
1188.09	27.5
1189.2	25
1190.3	22
1191.4	26
1192.5	23
1193.6	23.5
1194.7	26.9761
1195.8	21.9855
1196.9	27.8834
1198.01	24.0197
1199.11	23.6488
1200.21	22.6697
1201.31	22.9312
1202.41	20.0775
1203.5	20.4249
1204.6	19.7691
1205.7	25.2411
1206.8	22.5924
1207.9	24.3877
1209	24.85
1210.1	22.5112
1211.2	22.9937
1212.3	23.4671
1213.39	23.1511
1214.49	23.7953
1215.59	24.2729
1216.69	24.5104
1217.78	21.0559
1218.88	25.4427
1219.98	23.7498
1221.08	24.2755
1222.17	24.1226
1223.27	22.5177
1224.37	19.212
1225.46	23.7031
1226.56	24.9033
1227.65	22.3601
1228.75	21.6477
1229.84	24.3155
1230.94	22.9918
1232.03	26.3101
1233.13	23.7911
1234.22	23.7584
1235.32	22.6981
1236.41	24.1961
1237.51	23.0225
1238.6	23.3631
1239.69	21.7083
1240.79	23.1092
1241.88	22.0226
1242.97	22.9176
1244.07	24.9873
1245.16	22.7374
1246.25	22.7306
1247.35	23.7249
1248.44	23.5843
1249.53	23.3868
1250.62	22.816
1251.71	24.4557
1252.81	25
1253.9	24.1507
1254.99	23.5191
1256.08	24.7986
1257.17	23.5476
1258.26	24.6631
1259.35	24.144
1260.44	22.6113
1261.53	22.9077
1262.62	23.2027
1263.71	27.1594
1264.8	25.4421
1265.89	22.3037
1266.98	23.3255
1268.07	24.0469
1269.16	23.2127
1270.25	24.1505
1271.34	19.9121
1272.43	22.8184
1273.52	23.5988
1274.6	24.6146
1275.69	23.8554
1276.78	22.0094
1277.87	22.2475
1278.95	22.6194
1280.04	23.0682
1281.13	24.3654
1282.22	22.1483
1283.3	23.6841
1284.39	24.9523
1285.48	24.2204
1286.56	23.3439
1287.65	25.0766
1288.73	21.7639
1289.82	22.8201
1290.91	23.01
1291.99	22.4682
1293.08	22.3431
1294.16	22.3401
1295.24	23.5246
1296.33	24
1297.41	24.4408
1298.5	23.5066
1299.58	21.2647
1300.67	23.0992
1301.75	23.9563
1302.83	24.2825
1303.92	24.8278
1305	24.9854
1306.08	22.1487
1306.4	21
1307.49	24.5
1308.58	24
1309.66	25
1310.75	22.5
1311.84	23
1312.93	23.5
1314.01	25.5
1315.1	22.5
1316.19	22
1317.27	26.5
1318.36	23
1319.45	26
1320.53	22.5
1321.62	24.5
1322.71	26.5
1323.79	26.5
1324.88	26
1325.96	21.5
1327.05	21
1328.13	25
1329.22	22.5
1330.3	24
1331.39	26
1332.47	28.5
1333.55	20
1334.64	20
1335.72	23.5
1336.81	24
1337.89	24
1338.97	23
1340.06	23
1341.14	22
1342.22	22
1343.3	25.5
1344.39	22
1345.47	21
1346.55	23
1347.63	24.5
1348.71	22
1349.8	26
1350.88	22
1351.96	23
1353.04	26.5
1354.12	29
1355.2	20
1356.28	22
1357.36	23
1358.44	24
1359.52	20
1360.6	26.5
1361.68	21
1362.76	26
1363.84	24.5
1364.92	26
1366	23.5
1367.08	24
1368.16	24
1369.23	22
1370.31	22
1371.39	24.5
1372.47	26
1373.55	27.5
1374.62	27
1375.7	25
1376.78	22
1377.86	25.5
1378.93	23
1380.01	24
1381.09	24
1382.16	24
1383.24	25
1384.32	23
1385.39	27
1386.47	23
1387.54	25.5
1388.62	22.5
1389.69	25
1390.77	22.5
1391.84	26
1392.92	21.5
1393.99	27
1395.07	25
1396.14	25
1397.21	23.5
1398.29	29
1399.36	30
1400.44	28.5
1401.51	18.5
1402.58	28
1403.66	26.5
1404.73	25
1405.8	26
1406.87	28
1407.95	28
1409.02	25.5
1410.09	27.5
1411.16	26
1412.23	24.5
1413.3	25.5
1414.38	26
1415.45	26
1416.52	29.5
1417.59	28
1418.66	20.5
1419.73	26
1420.8	27
1421.87	23
1422.94	26
1424.01	23.5
1425.08	27.5
1426.15	26
1427.22	24.5
1428.29	23
1429.36	22
1430.43	29
1431.49	22
1432.56	27.5
1433.63	21
1434.7	21
1435.77	25
1436.83	23.5
1437.9	25.5
1438.97	24
1440.04	23
1441.1	24.5
1442.17	23
1443.24	21.5
1444.3	23.5
1445.37	27.5
1446.44	27.5
1447.5	23
1448.57	27
1449.63	27
1450.7	23
1451.77	23
1452.83	25
1453.9	25.5
1454.96	22.5
1456.03	25
1457.09	27.5
1458.15	24.5
1459.22	25
1460.28	28.5
1461.35	22
1462.41	23
1463.47	29
1464.54	27
1465.6	26.5
1466.66	25
1467.73	26.5
1468.79	26
1469.85	26
1470.91	25.5
1471.98	24.5
1473.04	27
1474.1	22.5
1475.16	24.5
1476.22	25
1477.28	23
1478.35	26
1479.41	23.5
1480.47	23
1481.53	25.5
1482.59	23
1483.65	25
1484.71	25
1485.77	25
1486.83	29.5
1487.89	25.5
1488.95	26.5
1490.01	26.5
1491.07	27
1492.13	26.5
1493.18	25
1494.24	27
1495.3	25
1496.36	25
1497.42	25.5
1498.48	25
1499.53	24.5
1500.59	26
1501.65	25.5
1502.71	21.5
1503.76	24.5
1504.82	22
1505.88	25.5
1506.93	24.5
1507.99	21.5
1509.05	24
1510.1	26
1511.16	25.5
1512.21	24
1513.27	24
1514.33	27.5
1515.38	25
1516.44	26.5
1517.49	22
1518.55	26
1519.6	21
1520.66	22
1521.71	24.5
1522.76	28
1523.82	22.5
1524.87	26
1525.93	28.5
1526.98	22
1528.03	28
1529.08	25
1530.14	27
1531.19	26
1532.24	24.5
1533.3	23.5
1534.35	22
1535.4	24
1536.45	29
1537.5	27
1538.56	26
1539.61	25.5
1540.66	21.5
1541.71	26.5
1542.76	23.5
1543.81	23
1544.86	24
1545.91	24.5
1546.96	25.5
1548.01	24.5
1549.06	27
1550.11	23
1551.16	23
1552.21	25.5
1553.26	22
1554.31	23.5
1555.36	24.5
1556.41	26.5
1557.46	20
1558.51	23
1559.56	20
1560.6	22
1561.65	29
1562.7	24
1563.75	24
1564.79	25
1565.84	24
1566.89	26
1567.94	26
1568.98	27
1570.03	23.5
1571.08	26
1572.12	26
1573.17	22.5
1574.22	23
1575.26	26
1576.31	22
1577.35	21.5
1578.4	26.5
1579.44	23
1580.49	21.5
1581.53	22.5
1582.58	26
1583.62	28.5
1584.67	24
1585.71	28
1586.76	27
1587.8	25
1588.84	24.5
1589.89	26
1590.93	20
1591.97	23.5
1593.02	26
1594.06	25.5
1595.1	23
1596.14	26
1597.19	26
1598.23	25.5
1599.27	21.5
1600.31	25.5
1601.36	24.5
1602.4	23.5
1603.44	24
1604.48	26
1605.52	28
1606.56	23
1607.6	23.5
1608.64	19.5
1609.68	23.5
1610.72	22
1611.76	24.5
1612.81	22.5
1613.84	22.5
1614.88	24
1615.92	24
1616.96	24
1618	23
1619.04	25
1620.08	27
1621.12	26
1622.16	26
1623.2	30.5
1624.23	24.5
1625.27	26
1626.31	23.5
1627.35	24.5
1628.39	28.5
1629.42	23.5
1630.46	30.5
1631.5	24.5
1632.53	24
1633.57	23.5
1634.61	23
1635.64	25.5
1636.68	27.5
1637.72	25
1638.75	26.5
1639.79	22.5
1640.82	24.5
1641.86	22
1642.89	27
1643.93	22
1644.96	22
1646	25.5
1647.03	26.5
1648.07	25
1649.1	20.5
1650.14	28.5
1651.17	22
1652.21	27
1653.24	24.5
1654.27	23.5
1655.31	21.5
1656.34	26.5
1657.37	19.5
1658.41	19
1659.44	24.5
1660.47	26
1661.5	28.5
1662.53	26
1663.57	26
1664.6	24
1665.63	24.5
1666.66	24.5
1667.69	22.5
1668.72	26.5
1669.76	25
1670.79	25.5
1671.82	26
1672.85	28
1673.88	28
1674.91	26
1675.94	25
1676.97	22
1678	26
1679.03	26
1680.06	25.5
1681.09	24.5
1682.12	28
1683.15	25
1684.17	26.5
1685.2	25.5
1686.23	23.5
1687.26	20
1688.29	24
1689.32	27.5
1690.34	23.5
1691.37	26.5
1692.4	28.5
1693.43	24.5
1694.45	25.5
1695.48	24
1696.51	23.5
1697.54	24
1698.56	25.5
1699.59	23
1700.61	22.5
1701.64	26
1702.67	26.5
1703.69	24.5
1704.72	26
1705.74	23
1706.77	23
1707.79	27
1708.82	27
1709.84	27.5
1710.87	25
1711.89	25
1712.92	23.5
1713.94	26
1714.97	24.5
1715.99	24
1717.01	26
1718.04	25.5
1719.06	28.5
1720.08	24
1721.11	25
1722.13	23.5
1723.15	24
1724.18	25
1725.2	29
1726.22	26.5
1727.24	25.5
1728.26	23
1729.29	25
1730.31	28
1731.33	24.5
1732.35	23
1733.37	23.5
1734.39	21.5
1735.41	27.5
1736.43	20.5
1737.45	23
1738.47	19
1739.5	24.5
1740.52	19
1741.53	26
1742.55	28
1743.57	25.5
1744.59	25.5
1745.61	27
1746.63	24
1747.65	25.5
1748.67	23.5
1749.69	22
1750.71	24
1751.72	23
1752.74	27
1753.76	24.5
1754.78	24.5
1755.8	26
1756.81	27
1757.83	23.5
1758.85	22.5
1759.87	25.5
1760.88	24.5
1761.9	27
1762.92	24
1763.93	22.5
1764.95	25
1765.96	25
1766.98	24.5
1768	26
1769.01	25
1770.03	23
1771.04	27
1772.06	22.5
1773.07	25.5
1774.09	23.5
1775.1	19.5
1776.12	23.5
1777.13	23.5
1778.15	23
1779.16	24
1780.17	26
1781.19	26.5
1782.2	24
1783.21	23.5
1784.23	27
1785.24	25
1786.25	20.5
1787.27	23.5
1788.28	27
1789.29	24.5
1790.3	26
1791.32	24.5
1792.33	28.5
1793.34	26.5
1794.35	25.5
1795.36	25.5
1796.38	23.5
1797.39	24
1798.4	22.5
1799.41	22.5
1800.42	21
1801.43	22
1802.44	26
1803.45	24
1804.46	25.5
1805.47	22
1806.48	22.5
1807.49	23.5
1808.5	27
1809.51	22.5
1810.52	28.5
1811.53	27
1812.53	24.5
1813.54	26.5
1814.55	26
1815.56	23
1816.57	29.5
1817.58	23
1818.59	26
1819.59	24
1820.6	26
1821.61	28.5
1822.62	27
1823.62	22.5
1824.63	24
1825.64	24
1826.64	23.5
1827.65	24.5
1828.66	22.5
1829.66	24.5
1830.67	27
1831.67	25
1832.68	24
1833.69	24.5
1834.69	22.5
1835.7	22.5
1836.7	24
1837.71	25.5
1838.71	25.5
1839.72	26
1840.72	24.5
1841.72	27
1842.73	25
1843.73	23.5
1844.74	24.5
1845.74	27.5
1846.74	26.5
1847.75	25
1848.75	26.5
1849.75	28
1850.76	23
1851.76	23
1852.76	25.5
1853.76	25.5
1854.77	24
1855.77	26.5
1856.77	30
1857.77	22.5
1858.78	24
1859.78	26.5
1860.78	26
1861.78	26.5
1862.78	26
1863.78	28
1864.78	28.5
1865.78	27
1866.78	23
1867.78	17.5
1868.78	25
1869.78	24
1870.78	26.5
1871.78	25
1872.78	24
1873.78	25
1874.78	25.5
1875.78	24.5
1876.78	27
1877.78	25
1878.78	27
1879.78	19
1880.77	25
1881.77	25
1882.77	26.5
1883.77	24
1884.77	24
1885.76	25.5
1886.76	20
1887.76	23
1888.75	26
1889.75	23
1890.75	24.5
1891.74	30
1892.74	27.5
1893.74	26
1894.73	20
1895.73	23.5
1896.73	25.5
1897.72	26
1898.72	24.5
1899.71	25
1900.71	23.5
1901.7	23.5
1902.7	22
1903.69	23
1904.69	22
1905.68	21.5
1906.68	28
1907.67	29
1908.66	25.5
1909.66	27
1910.65	23.5
1911.64	23
1912.64	24.5
1913.63	26.5
1914.62	22
1915.62	23
1916.61	26
1917.6	22
1918.6	26.5
1919.59	24
1920.58	26
1921.57	24
1922.56	25.5
1923.55	27.5
1924.55	26
1925.54	24
1926.53	26.5
1927.52	21
1928.51	25
1929.5	23.5
1930.49	25.5
1931.48	23.5
1932.47	24.5
1933.46	21.5
1934.45	24.5
1935.44	24
1936.43	23
1937.42	25.5
1938.41	28
1939.4	25
1940.39	22
1941.38	23.5
1942.37	24.5
1943.36	23.5
1944.35	23
1945.33	22.5
1946.32	23
1947.31	24
1948.3	24.5
1949.29	25
1950.27	23
1951.26	22
1952.25	22
1953.24	22
1954.22	24
1955.21	23
1956.2	21.5
1957.18	17
1958.17	25.5
1959.16	25.5
1960.14	23
1961.13	24.5
1962.11	22.5
1963.1	24.5
1964.08	24.5
1965.07	21
1966.05	24.5
1967.04	23.5
1968.02	25.5
1969.01	28.5
1969.99	25.5
1970.98	18.5
1971.96	22.5
1972.95	23.5
1973.93	20
1974.91	21
1975.9	23.5
1976.88	21.5
1977.86	23.5
1978.85	22.5
1979.83	23.5
1980.81	24.5
1981.8	26.5
1982.78	23.5
1983.76	25
1984.74	22.5
1985.73	28
1986.71	24.5
1987.69	23.5
1988.67	23
1989.65	25
1990.63	24
1991.62	23
1992.6	23
1993.58	22
1994.56	22.5
1995.54	21
1996.52	25
1997.5	26
1998.48	24
1999.46	23
2000.44	22.5
2001.42	23
2002.4	27
2003.38	26.5
2004.36	25
2005.34	24
2006.32	24.5
2007.29	21
2008.27	26.5
2009.25	23
2010.23	26
2011.21	26
2012.19	27
2013.17	25
2014.14	21.5
2015.12	24
2016.1	20.5
2017.07	24
2018.05	24
2019.03	26
2020.01	26.5
2020.98	27
2021.96	22
2022.94	25.5
2023.91	22
2024.89	25.5
2025.86	21
2026.84	24.5
2027.82	26
2028.79	28
2029.77	25
2030.74	22.5
2031.72	25
2032.69	25
2033.67	19
2034.64	26
2035.62	23.5
2036.59	26
2037.56	24
2038.54	23.5
2039.51	24.5
2040.49	20.5
2041.46	26
2042.43	24
2043.41	22
2044.38	23.5
2045.35	24
2046.32	24
2047.3	21
2048.27	22.5
2049.24	20.5
2050.21	19.5
2051.19	21.5
2052.16	23.5
2053.13	28
2054.1	25.5
2055.07	23.5
2056.05	24
2057.02	23.5
2057.99	22.5
2058.96	22.5
2059.93	23
2060.9	19.5
2061.87	24
2062.84	25.5
2063.81	21
2064.78	22.5
2065.75	26.5
2066.72	23.5
2067.69	18
2068.66	23
2069.63	18.5
2070.6	25.5
2071.57	25
2072.54	20.5
2073.5	23.5
2074.47	26
2075.44	23.5
2076.41	25
2077.38	23
2078.35	25
2079.31	23
2080.28	23.5
2081.25	21
2082.22	19.5
2083.18	24.5
2084.15	24
2085.12	24.5
2086.08	20.5
2087.05	20
2088.02	24.5
2088.98	24
2089.95	25.5
2090.92	23
2091.88	27
2092.85	23.5
2093.81	23
2094.78	21
2095.74	20.5
2096.71	21
2097.67	21.5
2098.64	25
2099.6	25
2100.57	20
2101.53	19
2102.5	24
2103.46	22
2104.42	19.5
2105.39	23
2106.35	25
2107.32	24
2108.28	25
2109.24	22
2110.21	22
2111.17	24
2112.13	19.5
2113.09	22.5
2114.06	23.5
2115.02	21.5
2115.98	26
2116.94	25.5
2117.91	23
2118.87	23
2119.83	24
2120.79	22.5
2121.75	26
2122.71	24
2123.67	24.5
2124.63	25
2125.6	22.5
2126.56	25.5
2127.52	22
2128.48	24.5
2129.44	23.5
2130.4	25.5
2131.36	24
2132.32	21
2133.28	20
2134.23	22
2135.19	23
2136.15	25
2137.11	24
2138.07	24.5
2139.03	24.5
2139.99	25.5
2140.95	20
2141.9	20
2142.86	27.9671
2143.82	24.9445
2144.78	22.5056
2145.74	21.9776
2146.69	19.9951
2147.65	23.8806
2148.61	21.6105
2149.57	21.4725
2150.52	25.5399
2151.48	23.9162
2152.44	22.4724
2153.39	25.6149
2154.35	19.682
2155.31	25.8633
2156.26	22.2226
2157.22	24.5792
2158.17	20.0925
2159.13	22.2904
2160.08	24.9274
2161.04	23.4572
2161.99	20.1136
2162.95	25.2656
2163.91	21.8463
2164.86	23.2516
2165.81	21.9084
2166.77	21.0807
2167.72	19.9005
2168.68	22.5191
2169.63	22.181
2170.58	23.4493
2171.54	24.2753
2172.49	23.065
2173.45	23.4063
2174.4	23.9383
2175.35	23.3457
2176.31	22.5008
2177.26	24.8009
2178.21	20.374
2179.16	21.2411
2180.12	20.3482
2181.07	20.5719
2182.02	20.1335
2182.97	23.4128
2183.92	22.9016
2184.88	20.1409
2185.83	21.5803
2186.78	24.398
2187.73	21.9022
2188.68	22.1723
2189.63	21.3041
2190.58	21.3749
2191.53	19.3086
2192.49	22.2616
2193.43	23.6986
2194.39	23.1102
2195.34	21.8452
2196.28	21.8136
2197.24	20.4958
2198.19	21.9321
2199.13	23.3875
2200.08	21.4418
2201.03	21.2015
2201.98	25.4991
2202.93	24.7619
2203.88	23.8487
2204.83	20.703
2205.78	21.9911
2206.73	25.4631
2207.67	24.7276
2208.62	20.9258
2209.57	20.2881
2210.52	20.555
2211.47	21.6032
2212.41	20.6831
2213.36	21.295
2214.31	22.9468
2215.26	20.6774
2216.2	20.8616
2217.15	20.3529
2218.1	24.43
2219.04	21.6312
2219.99	21.0225
2220.93	22.8753
2221.88	22.6893
2222.83	21.1937
2223.77	25.7387
2224.72	22.7123
2225.66	21.6611
2226.61	23.2773
2227.55	24.8696
2228.5	21.8326
2229.44	23.1458
2230.39	20.2354
2231.33	23.5666
2232.28	23.0733
2233.22	22.6092
2234.17	24.0327
2235.11	24.4957
2236.06	24.8942
2237	23.4032
2237.94	23.7494
2238.89	22.5052
2239.83	25.4055
2240.06	26.5
2241.01	20.5
2241.96	25
2242.9	19
2243.85	26.5
2244.8	24.5
2245.75	22
2246.69	24
2247.64	19.5
2248.59	23
2249.53	21
2250.48	25
2251.43	24
2252.37	22
2253.32	21.5
2254.27	23
2255.21	23.5
2256.16	25
2257.1	23
2258.05	19.5
2259	21
2259.94	23.5
2260.89	23
2261.83	22
2262.78	22.5
2263.72	25
2264.67	21.5
2265.61	21.5
2266.56	26
2267.5	21
2268.44	24.5
2269.39	21.5
2270.33	26
2271.27	26
2272.22	24.5
2273.16	19.5
2274.1	20.5
2275.05	21.5
2275.99	22.5
2276.93	22
2277.88	24
2278.82	22
2279.76	24
2280.7	25
2281.65	27.5
2282.59	21.5
2283.53	21
2284.47	21
2285.41	25
2286.35	25
2287.29	24
2288.24	24.5
2289.18	23
2290.12	22.5
2291.06	22.5
2292	24.5
2292.94	20.5
2293.88	23
2294.82	22
2295.76	20
2296.7	21
2297.64	23
2298.58	22
2299.52	22.5
2300.46	23.5
2301.4	21
2302.34	19
2303.28	26
2304.21	20
2305.15	22.5
2306.09	25
2307.03	19
2307.97	19.5
2308.91	19
2309.84	22
2310.78	22.5
2311.72	24
2312.66	22.5
2313.59	25
2314.53	22.5
2315.47	24.5
2316.4	25
2317.34	21.5
2318.28	21.5
2319.22	19.5
2320.15	23
2321.09	24
2322.02	23
2322.96	21.5
2323.89	23
2324.83	22.5
2325.77	24
2326.7	25.5
2327.64	24
2328.57	24
2329.51	21.5
2330.44	18
2331.38	24
2332.31	22.5
2333.25	21.5
2334.18	28
2335.11	21.5
2336.05	24
2336.98	24.5
2337.92	26
2338.85	22
2339.78	25
2340.72	24
2341.65	20
2342.58	22
2343.52	25
2344.45	24
2345.38	21
2346.31	22.5
2347.25	23
2348.18	23
2349.11	26
2350.04	21
2350.97	21
2351.9	22
2352.84	22
2353.77	20.5
2354.7	22
2355.63	26.5
2356.56	23
2357.49	25
2358.42	22
2359.35	24.5
2360.28	24
2361.21	17
2362.14	24
2363.07	22
2364	23.5
2364.93	24
2365.86	26
2366.79	22.5
2367.72	26
2368.65	24.5
2369.58	24
2370.51	25.5
2371.44	24
2372.36	22.5
2373.29	25.5
2374.22	23.5
2375.15	22
2376.08	24.5
2377.01	23.5
2377.93	20.5
2378.86	22
2379.79	25.5
2380.72	22.5
2381.64	22
2382.57	22
2383.5	22.5
2384.42	22
2385.35	24
2386.28	25
2387.2	20.5
2388.13	24.5
2389.06	23
2389.98	23
2390.91	21
2391.83	21.5
2392.76	23.5
2393.69	21
2394.61	24
2395.54	22.5
2396.46	27
2397.39	25
2398.31	24.5
2399.23	23.5
2400.16	25
2401.08	29.5
2402.01	24
2402.93	21
2403.86	20
2404.78	25
2405.7	23.5
2406.63	24.5
2407.55	27
2408.47	23
2409.4	24.5
2410.32	21.5
2411.24	20.5
2412.17	25.5
2413.09	24.5
2414.01	21.5
2414.93	25.5
2415.85	24
2416.78	27
2417.7	23
2418.62	27.5
2419.54	19
2420.46	24.5
2421.38	25
2422.31	20.5
2423.23	19.5
2424.15	23.5
2425.07	20
2425.99	25.5
2426.91	24
2427.83	25
2428.75	23.5
2429.67	22.5
2430.59	27
2431.51	27.5
2432.43	22.5
2433.35	21.5
2434.27	24
2435.19	25.5
2436.11	25.5
2437.03	28.5
2437.94	23
2438.86	23.5
2439.78	22.5
2440.7	25
2441.62	24
2442.54	20
2443.46	23.5
2444.37	23.5
2445.29	25
2446.21	24.5
2447.13	24.5
2448.04	26
2448.96	22
2449.88	21
2450.8	23.5
2451.71	25
2452.63	21.5
2453.55	24
2454.46	26
2455.38	25
2456.29	22
2457.21	20
2458.13	24.5
2459.04	24.5
2459.96	24.5
2460.87	22
2461.79	25.5
2462.7	22.5
2463.62	23
2464.53	20.5
2465.45	22.5
2466.36	23
2467.28	22.5
2468.19	26.5
2469.11	23.5
2470.02	20
2470.93	24
2471.85	23.5
2472.76	29.5
2473.67	27
2474.59	22.5
2475.5	18.5
2476.42	26.5
2477.33	25.5
2478.24	24.5
2479.15	21
2480.07	23
2480.98	24.5
2481.89	23.5
2482.8	20.5
2483.72	26
2484.63	27
2485.54	23.5
2486.45	27
2487.36	19
2488.27	23.5
2489.19	20.5
2490.1	25.5
2491.01	24.5
2491.92	25
2492.83	22
2493.74	27.5
2494.65	21.5
2495.56	23.5
2496.47	25
2497.38	26
2498.29	23.5
2499.2	29
2500.11	23.5
2501.02	24.5
2501.93	24
2502.84	23
2503.75	22
2504.66	25
2505.57	25
2506.47	20.5
2507.38	24
2508.29	26
2509.2	22
2510.11	26
2511.02	24.5
2511.92	28
2512.83	24
2513.74	24.5
2514.65	21.5
2515.55	25
2516.46	21.5
2517.37	26
2518.28	23
2519.18	22
2520.09	22
2521	24
2521.9	20.5
2522.81	25.5
2523.72	23
2524.62	25
2525.53	23
2526.43	24.5
2527.34	25.5
2528.24	20.5
2529.15	27.5
2530.06	25
2530.96	26.5
2531.87	27.5
2532.77	25
2533.68	26
2534.58	22
2535.48	26
2536.39	24.5
2537.29	23.5
2538.2	23
2539.1	27
2540	21
2540.91	24
2541.81	22
2542.72	22
2543.62	23
2544.52	22
2545.42	21
2546.33	20.5
2547.23	22.5
2548.13	23.5
2549.04	28
2549.94	22
2550.84	22
2551.74	24.5
2552.64	24
2553.55	23.5
2554.45	23
2555.35	22
2556.25	24.5
2557.15	24
2558.05	23.5
2558.95	23.5
2559.85	25
2560.76	27.5
2561.66	24
2562.56	21.5
2563.46	24.5
2564.36	26.5
2565.26	24.5
2566.16	24
2567.06	23.5
2567.96	26
2568.86	21
2569.76	26.5
2570.66	21.5
2571.55	26
2572.45	24.5
2573.35	25
2574.25	24
2575.15	20
2576.05	26
2576.95	27
2577.84	22
2578.74	24
2579.64	25.5
2580.54	22.5
2581.44	25.5
2582.33	27
2583.23	23
2584.13	30
2585.03	22
2585.92	21
2586.82	28
2587.72	23
2588.61	23
2589.51	25.5
2590.41	25.5
2591.3	25.5
2592.2	25
2593.09	22
2593.99	21.5
2594.89	22
2595.78	24.5
2596.68	20.5
2597.57	21
2598.47	25
2599.36	23.5
2600.26	20
2601.15	24.5
2602.05	25.5
2602.94	21
2603.84	28
2604.73	23
2605.63	26
2606.52	27
2607.41	27
2608.31	28.5
2609.2	29
2610.09	26
2610.99	21
2611.88	25
2612.77	23.5
2613.67	25.5
2614.56	22.5
2615.45	25
2616.35	23
2617.24	24.5
2618.13	21.5
2619.02	24.5
2619.91	25
2620.81	24
2621.7	25.5
2622.59	20
2623.48	22
2624.37	25.5
2625.26	26.5
2626.15	20.5
2627.05	23.5
2627.94	24
2628.83	22
2629.72	24
2630.61	22
2631.5	27
2632.39	22
2633.28	23.5
2634.17	23.5
2635.06	22
2635.95	25
2636.84	25
2637.73	22
2638.62	26
2639.51	24.5
2640.4	18
2641.28	23
2642.17	25.5
2643.06	26
2643.95	23
2644.84	28
2645.73	19.5
2646.62	25.5
2647.5	26
2648.39	29.5
2649.28	24.5
2650.17	25.5
2651.05	25.5
2651.94	20.5
2652.83	25
2653.72	23
2654.6	25
2655.49	25.5
2656.38	22.5
2657.26	23
2658.15	27
2659.04	21.5
2659.92	23.5
2660.81	22.5
2661.69	23.5
2662.58	28
2663.47	25
2664.35	25
2665.24	26
2666.12	27
2667.01	18
2667.89	27
2668.78	23.5
2669.66	23
2670.55	25
2671.43	24
2672.32	23
2673.2	24.5
2674.08	25.5
2674.97	26
2675.85	25.5
2676.74	25
2677.62	23
2678.5	24.5
2679.39	23.5
2680.27	24.5
2681.15	28.5
2682.04	23
2682.92	28
2683.8	26
2684.68	25
2685.57	24
2686.45	23.5
2687.33	23.5
2688.21	26
2689.09	24
2689.98	27
2690.86	25.5
2691.74	23
2692.62	23
2693.5	22.5
2694.38	21.5
2695.27	25
2696.15	25
2697.03	25
2697.91	24
2698.79	23
2699.67	23.5
2700.55	26
2701.43	23.5
2702.31	24.5
2703.19	23.5
2704.07	25
2704.95	21
2705.83	25
2706.71	23
2707.59	25.5
2708.47	24
2709.34	22
2710.22	26.5
2711.1	24
2711.98	27
2712.86	23.5
2713.74	22.5
2714.62	27
2715.49	24.5
2716.37	26.5
2717.25	25.5
2718.13	22
2719.01	25.5
2719.88	26.5
2720.76	24.5
2721.64	19
2722.51	27
2723.39	26.5
2724.27	23
2725.14	22
2726.02	25
2726.9	23
2727.77	26
2728.65	22
2729.53	26
2730.4	22
2731.28	27
2732.15	24.5
2733.03	25.5
2733.91	22.5
2734.78	25
2735.66	26
2736.53	24.5
2737.41	22.5
2738.28	22.5
2739.16	22
2740.03	24.5
2740.9	25.5
2741.78	25
2742.65	27
2743.53	23.5
2744.4	23
2745.27	22
2746.15	23.5
2747.02	28
2747.89	24
2748.77	25
2749.64	28
2750.51	24.5
2751.39	24
2752.26	22.5
2753.13	21.5
2754.01	23
2754.88	23
2755.75	22
2756.62	22.5
2757.49	24
2758.37	21
2759.24	20.5
2760.11	24.5
2760.98	27.5
2761.85	26
2762.72	21.5
2763.59	19.5
2764.46	20.5
2765.34	29
2766.21	23.5
2767.08	24
2767.95	25.5
2768.82	24
2769.69	21
2770.56	26.5
2771.43	24.5
2772.3	24
2773.17	25
2774.04	24.5
2774.91	26
2775.78	25
2776.65	21
2777.51	21
2778.38	24.5
2779.25	24.5
2780.12	22
2780.99	23
2781.86	26
2782.73	20
2783.59	26
2784.46	18
2785.33	25
2786.2	20.5
2787.07	24.5
2787.93	24
2788.8	25
2789.67	20.5
2790.54	21
2791.4	21
2792.27	26
2793.14	22
2794	22.5
2794.87	21
2795.74	26
2796.6	22
2797.47	28
2798.34	23.5
2799.2	23
2800.07	24
2800.93	25.25
2801.8	24.5
2802.66	23
2803.53	24.5
2804.39	27.5
2805.26	24
2806.12	22
2806.99	24
2807.85	26
2808.72	23
2809.58	26
2810.45	24.5
2811.31	24.5
2812.18	27.5
2813.04	24
2813.9	22.5
2814.77	25
2815.63	25
2816.49	26.5
2817.36	26
2818.22	18
2819.08	23.5
2819.95	23
2820.81	23
2821.67	23.5
2822.53	23
2823.4	21
2824.26	25
2825.12	21.5
2825.98	24
2826.84	23
2827.71	27.5
2828.57	23
2829.43	25.5
2830.29	22
2831.15	23.5
2832.01	23.5
2832.88	23
2833.74	21.5
2834.6	23
2835.46	21.5
2836.32	26.5
2837.18	23.5
2838.04	23.5
2838.9	22.5
2839.76	27
2840.62	19.5
2841.48	23.5
2842.34	21
2843.2	27
2844.06	20
2844.92	21.5
2845.78	22.5
2846.63	22
2847.49	24.5
2848.35	20
2849.21	23
2850.07	23.5
2850.93	21
2851.79	20
2852.64	24
2853.5	27
2854.36	22
2855.22	23
2856.08	24.5
2856.93	23
2857.79	20
2858.65	25
2859.51	23
2860.36	25.5
2861.22	20.5
2862.08	28
2862.93	27.5
2863.79	25.5
2864.65	25.5
2865.5	22
2866.36	25.5
2867.22	26
2868.07	26
2868.93	22
2869.78	22.5
2870.64	23
2871.49	26.5
2872.35	25.5
2873.21	25.5
2874.06	22
2874.91	25
2875.77	28
2876.62	27
2877.48	24.5
2878.33	27
2879.19	25
2880.04	26
2880.9	27
2881.75	25
2882.6	24
2883.46	25
2884.31	28
2885.17	29
2886.02	28.5
2886.87	24.5
2887.73	25
2888.58	24
2889.43	27
2890.28	28.5
2891.14	27
2891.99	28
2892.84	25.5
2893.69	33.5
2894.55	28
2895.4	29
2896.25	29.5
2897.1	31
2897.95	33.5
2898.8	32
2899.66	32.5
2900.51	33
2901.36	41
2902.21	34
2903.06	38.5
2903.91	36.5
2904.76	39.5
2905.61	36
2906.46	33
2907.31	37.5
2908.16	37
2909.01	35
2909.86	32.5
2910.71	32
2911.56	32
2912.41	33.5
2913.26	33.5
2914.11	27
2914.96	30
2915.81	30.5
2916.66	29.5
2917.51	27.5
2918.36	27.5
2919.2	30.5
2920.05	23
2920.9	26
2921.75	25
2922.6	25
2923.45	25.5
2924.29	28
2925.14	23
2925.99	22
2926.84	24
2927.68	26.5
2928.53	22
2929.38	25
2930.23	22
2931.07	24
2931.92	25
2932.77	26.5
2933.61	25
2934.46	22
2935.3	24
2936.15	25.5
2937	22.5
2937.84	23.5
2938.69	23.5
2939.53	23
2940.38	22.5
2941.23	26
2942.07	21
2942.92	28.5
2943.76	23
2944.61	22.5
2945.45	25
2946.3	27.5
2947.14	20
2947.98	24.5
2948.83	25
2949.67	23.5
2950.52	26.5
2951.36	29
2952.2	29.5
2953.05	23
2953.89	24.5
2954.74	28.5
2955.58	24
2956.42	22.5
2957.27	28.5
2958.11	25
2958.95	26
2959.79	27
2960.64	27.5
2961.48	29
2962.32	28.5
2963.16	27.5
2964.01	28.5
2964.85	29.5
2965.69	30
2966.53	31
2967.37	26
2968.21	29
2969.06	25
2969.9	31
2970.74	28.5
2971.58	24.5097
2972.42	27.3784
2973.26	25.042
2974.1	23.1375
2974.94	25.1466
2975.78	22.2271
2976.62	26.6373
2977.46	25.4642
2978.3	22.7015
2979.14	28.0155
2979.98	24.885
2980.82	24.9851
2981.66	24.4037
2982.5	22.4069
2983.34	25.655
2984.18	23.275
2985.02	21
2985.86	21.486
2986.7	23.7743
2987.54	23.4833
2988.38	24.1379
2989.21	25.495
2990.05	24.8026
2990.89	24.9268
2991.73	23.2834
2992.57	20.814
2993.41	22.3759
2994.24	23.1971
2995.08	22.664
2995.92	23.7698
2996.76	21.5533
2997.59	22.3809
2998.43	24.0749
2999.27	20.1788
3000.1	21.0856
3000.94	23.3303
3001.78	25.0628
3002.61	22.5154
3003.45	23.0322
3004.29	20.7522
3005.12	24.5833
3005.96	22.8687
3006.8	22.5465
3007.63	21.5968
3008.47	24.7733
3009.3	21.0908
3010.14	21.9298
3010.97	24.0569
3011.81	25.6316
3012.64	21.3877
3013.48	23.2626
3014.31	21.846
3015.15	21.8258
3015.98	22.0376
3016.82	22
3017.65	22.4498
3018.49	22.5379
3019.32	21.5785
3020.16	21.7985
3020.99	23.1792
3021.82	21.8401
3022.66	21.4847
3023.49	21.9668
3024.32	22.8319
3025.16	23.304
3025.99	21.2111
3026.82	21.8663
3027.66	22.4598
3028.49	23.6125
3029.32	24.8965
3030.16	21.1652
3030.99	21.2503
3031.82	21.4303
3032.65	21.4296
3033.49	21.213
3034.32	22.2151
3035.15	20.5893
3035.98	21.6138
3036.81	22.8006
3037.64	22.9788
3038.48	22.7494
3039.31	22.1802
3040.14	22.7422
3040.97	21.4059
3041.8	21.06
3042.63	21.4342
3043.46	22.4199
3044.29	23.0541
3045.12	24.1646
3045.95	21.9199
3046.78	20.073
3047.61	21.7229
3048.44	20.6336
3049.27	18.8617
3050.1	21.3817
3050.93	22.9185
3051.76	21.6727
3052.59	22.9154
3053.42	23.1158
3054.25	22.1583
3055.08	20.5894
3055.91	22.7304
3056.74	24.7463
3057.26	26
3058.09	21
3058.92	21
3059.76	21
3060.59	21
3061.42	24.5
3062.26	27.5
3063.09	24.5
3063.92	19.5
3064.75	19
3065.59	20.5
3066.42	21
3067.25	21.5
3068.08	26
3068.91	25
3069.74	19
3070.58	22.5
3071.41	23.5
3072.24	27
3073.07	19.5
3073.9	24
3074.73	20
3075.56	20
3076.39	21.5
3077.22	23
3078.05	21
3078.88	20
3079.71	24.5
3080.55	23.5
3081.38	22
3082.2	30
3083.03	23.5
3083.86	22.5
3084.69	25
3085.52	20
3086.35	20
3087.18	22.5
3088.01	24.5
3088.84	22
3089.67	20
3090.5	21
3091.33	21.5
3092.15	22.5
3092.98	23
3093.81	24.5
3094.64	22.5
3095.47	21
3096.29	23
3097.12	23
3097.95	24
3098.78	23.5
3099.6	27
3100.43	26.5
3101.26	24
3102.09	23.5
3102.91	22.5
3103.74	22.5
3104.57	23
3105.39	22
3106.22	20
3107.05	23
3107.87	22.5
3108.7	20.5
3109.52	23.5
3110.35	22
3111.18	25
3112	20.5
3112.83	20
3113.65	21
3114.48	17.5
3115.3	23
3116.13	21
3116.95	21.5
3117.78	23.5
3118.6	22.5
3119.43	19
3120.25	24.5
3121.08	22.5
3121.9	21
3122.73	23
3123.55	23
3124.37	20
3125.2	23.5
3126.02	19
3126.84	18.5
3127.67	23
3128.49	22
3129.31	22.5
3130.14	20
3130.96	18
3131.78	24.5
3132.61	23
3133.43	22.5
3134.25	21
3135.07	19.5
3135.9	25
3136.72	23.5
3137.54	26
3138.36	25
3139.18	22
3140.01	25.5
3140.83	25
3141.65	20.5
3142.47	23.5
3143.29	25
3144.11	24
3144.93	24.5
3145.75	25.5
3146.58	21
3147.4	19.5
3148.22	20.5
3149.04	24
3149.86	27
3150.68	21
3151.5	22
3152.32	21.5
3153.14	24
3153.96	22
3154.78	23.5
3155.6	21.5
3156.42	24.5
3157.23	21.5
3158.05	23
3158.87	19.5
3159.69	22.5
3160.51	23
3161.33	24
3162.15	23.5
3162.97	21
3163.79	19.5
3164.6	23.5
3165.42	21.5
3166.24	23
3167.06	20.5
3167.88	22.5
3168.69	21.5
3169.51	24.5
3170.33	22
3171.15	25
3171.96	21.5
3172.78	27.5
3173.6	16.5
3174.41	27
3175.23	24
3176.05	21.5
3176.86	22
3177.68	26
3178.5	22.5
3179.31	22.5
3180.13	21
3180.95	26.5
3181.76	24
3182.58	23
3183.39	23.5
3184.21	24.5
3185.02	24
3185.84	23
3186.65	19.5
3187.47	26
3188.28	23
3189.1	25
3189.91	25.5
3190.73	23
3191.54	25
3192.36	23.5
3193.17	25
3193.99	21
3194.8	22.5
3195.61	25
3196.43	22
3197.24	25
3198.05	21
3198.87	24.5
3199.68	22.5
3200.49	24.5
3201.31	23
3202.12	22.5
3202.93	26
3203.75	20
3204.56	19
3205.37	22
3206.18	22
3207	22.5
3207.81	22
3208.62	24.5
3209.43	20
3210.24	23.5
3211.06	25
3211.87	22
3212.68	25.5
3213.49	21
3214.3	25
3215.11	21
3215.92	28
3216.74	23.5
3217.55	23
3218.36	21
3219.17	22.5
3219.98	25
3220.79	21.5
3221.6	22
3222.41	22
3223.22	26.5
3224.03	22
3224.84	23
3225.65	25
3226.46	23.5
3227.27	22
3228.08	22.5
3228.89	23.5
3229.7	22
3230.5	24
3231.31	25
3232.12	25
3232.93	21.5
3233.74	26
3234.55	23
3235.36	22.5
3236.16	26.5
3236.97	24
3237.78	24.5
3238.59	23.5
3239.4	23.5
3240.2	23
3241.01	26
3241.82	19
3242.63	21
3243.43	25.5
3244.24	22.5
3245.05	23.5
3245.86	23
3246.66	23
3247.47	23.5
3248.28	20.5
3249.08	22.5
3249.89	24
3250.69	26
3251.5	23
3252.31	25.5
3253.11	25
3253.92	23
3254.72	24
3255.53	24
3256.34	24.5
3257.14	26.5
3257.95	23.5
3258.75	24.5
3259.56	26.5
3260.36	25.5
3261.17	24.5
3261.97	22.5
3262.77	17
3263.58	25
3264.38	25.5
3265.19	25
3265.99	26.5
3266.8	23
3267.6	23
3268.4	21
3269.21	23
3270.01	22
3270.81	20.5
3271.62	23
3272.42	24.5
3273.22	24
3274.03	25
3274.83	22
3275.63	26.5
3276.43	27
3277.24	21
3278.04	19
3278.84	23
3279.64	28
3280.45	21
3281.25	25.5
3282.05	23.5
3282.85	26
3283.65	21
3284.46	23.5
3285.26	22
3286.06	22
3286.86	23.5
3287.66	22
3288.46	24.5
3289.26	24
3290.06	22
3290.86	23
3291.66	24
3292.46	23.5
3293.26	22.5
3294.06	22
3294.86	26
3295.66	23.5
3296.46	25
3297.26	21.5
3298.06	28
3298.86	17
3299.66	23
3300.46	23
3301.26	23
3302.06	18
3302.86	26.5
3303.66	28
3304.46	24
3305.26	23
3306.05	28.5
3306.85	22.5
3307.65	21
3308.45	20
3309.25	23
3310.04	24.5
3310.84	22
3311.64	23
3312.44	23
3313.24	23.5
3314.03	20
3314.83	23.5
3315.63	21
3316.42	25
3317.22	22
3318.02	24
3318.82	24.5
3319.61	24
3320.41	27
3321.2	20
3322	26.5
3322.8	22.5
3323.59	23
3324.39	23
3325.19	19
3325.98	20
3326.78	23
3327.57	27.5
3328.37	23
3329.16	24
3329.96	23.5
3330.75	27
3331.55	19
3332.34	24
3333.14	24
3333.93	27
3334.73	24.5
3335.52	22
3336.32	21
3337.11	26.5
3337.9	25
3338.7	22
3339.49	23
3340.29	25.5
3341.08	24
3341.87	26
3342.67	23.5
3343.46	24
3344.25	25.5
3345.05	24.5
3345.84	23
3346.63	24.5
3347.42	21.5
3348.22	26
3349.01	25.5
3349.8	23.5
3350.59	26
3351.39	23
3352.18	22
3352.97	22
3353.76	22
3354.55	21.5
3355.35	25
3356.14	19
3356.93	27.5
3357.72	21
3358.51	23
3359.3	27.5
3360.09	23.5
3360.88	24
3361.67	22
3362.47	24
3363.26	24
3364.05	27
3364.84	22
3365.63	23
3366.42	26.5
3367.21	23.5
3368	23
3368.79	21.5
3369.58	26
3370.37	23.5
3371.16	23.5
3371.95	24.5
3372.73	24
3373.52	24.5
3374.31	23.5
3375.1	27
3375.89	22
3376.68	25
3377.47	27.5
3378.26	25
3379.04	27
3379.83	22
3380.62	25
3381.41	24.5
3382.2	25
3382.98	22.5
3383.77	23.5
3384.56	22
3385.35	24.5
3386.14	22.5
3386.92	24
3387.71	27.5
3388.5	21
3389.28	25.5
3390.07	22.5
3390.86	23
3391.64	24
3392.43	27.5
3393.22	24.5
3394	23
3394.79	24
3395.58	23.5
3396.36	27
3397.15	24
3397.93	22.5
3398.72	20
3399.5	20
3400.29	23
3401.07	22
3401.86	25.5
3402.65	24.5
3403.43	24.5
3404.22	23
3405	25
3405.79	24
3406.57	25
3407.35	23.5
3408.14	23
3408.92	26
3409.71	24
3410.49	21
3411.27	22.5
3412.06	23
3412.84	22.5
3413.63	26.5
3414.41	27.5
3415.19	23.5
3415.98	26
3416.76	23.5
3417.54	24.5
3418.32	23
3419.11	21.5
3419.89	23
3420.67	22.5
3421.46	23
3422.24	25
3423.02	22
3423.8	27.5
3424.58	25.5
3425.37	24
3426.15	21.5
3426.93	20.5
3427.71	23.5
3428.49	27
3429.27	22.5
3430.06	20.5
3430.84	21
3431.62	23
3432.4	22.5
3433.18	24
3433.96	19
3434.74	22.5
3435.52	26.5
3436.3	24.5
3437.08	23
3437.86	23.5
3438.64	25
3439.42	23
3440.2	23
3440.98	22
3441.76	24
3442.54	22
3443.32	27
3444.1	22
3444.88	24.5
3445.66	23.5
3446.44	23
3447.22	22.5
3448	26.5
3448.78	26.5
3449.55	21
3450.33	24
3451.11	24.5
3451.89	22
3452.67	21.5
3453.45	22
3454.22	24.5
3455	22.5
3455.78	22
3456.56	25.5
3457.33	24.5
3458.11	24.5
3458.89	20.5
3459.67	23
3460.44	22
3461.22	22
3462	23
3462.77	23
3463.55	25.5
3464.33	22
3465.1	24
3465.88	24.5
3466.66	22.5
3467.43	22
3468.21	25
3468.99	24.5
3469.76	23
3470.54	21.5
3471.31	27
3472.09	25
3472.86	22
3473.64	23.5
3474.41	24.5
3475.19	22
3475.96	22.5
3476.74	22
3477.51	24
3478.29	26
3479.06	23.5
3479.84	22.5
3480.61	24
3481.39	25
3482.16	25.5
3482.93	24.5
3483.71	21.5
3484.48	23
3485.26	21.5
3486.03	23
3486.8	25
3487.58	23
3488.35	21
3489.12	19
3489.9	26
3490.67	24
3491.44	23
3492.21	27.5
3492.99	24.5
3493.76	24.5
3494.53	27.5
3495.3	22
3496.08	25.5
3496.85	19.5
3497.62	22
3498.39	25
3499.16	24.5
3499.94	22
