#Acq. time (s)=	5
#Accumulations=	5
#Range (cm-¹)=	100...3500
#Windows=	4
#Autofocus=	Off
#AutoExposure=	Off
#Spike filter=	Multiple accum.
#Delay time (s)=	0
#Binning=	1
#Readout mode=	Signal
#DeNoise=	Off
#ICS correction=	Off
#Dark correction=	Off
#Inst. Process=	Off
#Instrument=	LabRAM HR Evol
#Detector=	Syncerity OE
#Objective=	x100_VIS
#Grating=	600 (500nm)
#ND Filter=	25%
#Laser=	633nm_Edge
#Hole=	100.021
#Range=	Visible
#Project=	verificaciones
#Sample=	a3
#Site=	lined
#Title=	bolusa3lined
#Remark=	
#Date=	12.01.2026 16:22
#Acquired=	12.01.2026 16:22:49
100.666	24.5
101.95	32
103.233	30.5
104.516	29
105.799	23
107.083	31
108.365	26.5
109.648	23
110.93	27
112.212	29
113.493	26
114.775	26
116.056	25
117.337	30.5
118.618	23.5
119.898	27.5
121.178	27.5
122.459	24
123.739	23
125.018	25
126.298	26
127.577	27
128.856	27
130.135	27
131.414	28
132.692	29.5
133.971	27.5
135.249	30
136.525	29
137.803	29
139.08	29
140.357	27
141.634	23.5
142.911	29
144.188	27
145.464	24
146.74	29
148.015	29.5
149.291	28.5
150.566	27
151.842	27
153.117	29.5
154.392	31.5
155.665	29
156.939	31.5
158.214	34.5
159.488	28.5
160.76	31
162.034	30
163.307	29.5
164.581	30.5
165.854	25
167.125	29.5
168.398	28.5
169.67	30.5
170.941	30.5
172.213	29
173.485	31.5
174.756	29
176.026	32
177.298	29.5
178.569	31
179.838	29.5
181.109	30.5
182.379	29.5
183.648	33
184.918	27
186.187	34
187.455	30
188.725	31
189.992	31.5
191.261	28
192.53	32
193.797	30.5
195.065	27
196.332	30
197.6	26
198.866	31
200.134	28
201.401	29
202.667	33
203.933	30
205.199	28
206.465	30.5
207.73	25.5
208.996	27
210.26	29.5
211.526	31
212.79	25
214.055	29
215.319	28.5
216.582	28
217.847	29
219.11	28.5
220.374	24.5
221.636	27.5
222.9	29
224.162	27.5
225.424	24.5
226.687	29
227.949	28
229.212	28.5
230.473	26
231.734	24.5
232.996	26
234.256	26
235.517	30
236.778	24
238.038	24
239.298	26
240.559	27.5
241.818	28.5
243.077	26.5
244.337	27.5
245.596	25
246.854	22
248.113	23.5
249.372	26
250.63	24.5
251.887	27
253.145	25.5
254.404	28.5
255.661	24
256.917	25
258.174	24
259.432	27.5
260.688	23
261.944	24.5
263.2	27
264.456	27
265.711	27.5
266.968	28
268.223	28.5
269.477	31
270.732	29
271.986	23.5
273.24	24
274.494	24
275.748	27
277.003	22
278.257	29.5
279.51	28
280.763	25
282.015	26
283.268	26
284.52	27
285.773	27.5
287.024	28.5
288.276	21
289.528	26
290.779	28
292.03	26
293.281	27.5
294.532	25
295.782	25
297.033	26
298.283	26
299.533	25
300.783	24.5
302.032	26.5
303.281	26
304.531	28
305.78	24
307.028	23
308.275	25
309.524	25.5
310.772	31
312.02	26.5
313.267	23
314.515	27.5
315.762	28.5
317.009	27
318.255	26
319.501	25
320.748	27.5
321.994	26
323.24	29.5
324.486	25.5
325.731	27
326.976	26
328.221	25
329.466	22.5
330.71	27.5
331.955	22
333.199	24.5
334.443	23
335.686	25
336.93	31
338.174	25
339.417	32
340.659	22
341.902	25.5
343.145	28
344.386	26.5
345.629	22.5
346.871	29.5
348.112	25.5
349.354	26
350.595	24
351.836	27.5
353.077	27.5
354.318	32.5
355.557	26
356.798	24.5
358.037	24
359.277	24.5
360.518	25.5
361.756	23.5
362.996	29
364.234	28.5
365.473	26.5
366.711	27
367.95	28
369.187	28.5
370.426	25.5
371.662	25
372.901	27
374.137	24.5
375.375	27.5
376.611	28
377.848	21.5
379.084	24.5
380.321	23
381.556	22
382.793	26.5
384.027	25.5
385.264	27.5
386.498	23
387.732	27
388.968	28.5
390.202	26
391.437	29.5
392.671	26.5
393.904	25.5
395.138	29
396.371	26.5
397.604	24
398.838	26.5
400.07	25
401.302	26
402.536	29
403.768	24
404.999	25
406.232	25
407.463	27.5
408.694	26.5
409.925	29
411.157	25
412.387	31
413.617	25
414.847	26.5
416.078	30
417.308	27.5
418.537	24.5
419.767	25
420.997	27
422.226	29
423.454	25
424.683	27.5
425.911	25
427.139	25.5
428.368	30.5
429.596	27.5
430.823	30
432.05	27
433.277	27
434.504	28.5
435.731	29.5
436.957	26.5
438.185	29
439.411	26
440.637	23.5
441.862	27.5
443.088	23.5
444.313	25
445.538	24
446.763	26.5
447.988	30.5
449.212	25.5
450.436	24
451.661	26.5
452.884	25.5
454.108	27
455.332	25
456.555	24
457.778	29.5
459.001	28
460.224	28
461.446	26
462.668	27.5
463.891	24
465.111	26
466.333	30
467.554	30
468.776	30
469.997	27.5
471.218	30.5
472.439	28.5
473.659	32.5
474.878	34
476.098	31.5
477.318	34.5
478.538	31.5
479.758	31
480.977	32.5
482.195	36
483.414	35.5
484.633	32.5
485.851	37
487.07	38.5
488.287	35.5
489.505	35
490.723	36
491.94	37
493.156	27.5
494.374	36
495.591	35.5
496.806	34.5
498.023	32
499.239	30.5
500.456	31
501.67	32
502.886	29
504.102	28.5
505.316	27
506.531	33
507.745	28
508.96	27
510.175	26
511.388	28.5
512.602	29.5
513.815	25
515.029	30
516.243	29.5
517.455	29
518.669	25
519.88	26.5
521.093	29.5
522.305	28.5
523.518	28
524.729	29.5
525.941	21.5
527.151	29
528.363	23
529.574	29.5
530.785	25.5
531.995	26
533.206	26
534.416	28
535.626	28.5
536.835	29.5
538.046	26.5
539.254	26
540.463	28
541.673	27.5
542.881	29
544.09	25
545.298	26
546.506	30
547.714	28
548.922	24.5
550.13	25.5
551.337	26.5
552.544	22
553.751	28
554.958	22.5
556.164	27
557.37	27.5
558.577	24
559.782	24.5
560.987	30
562.194	32.5
563.399	23.5
564.604	24.5
565.808	24
567.014	26.5
568.218	24
569.422	27
570.626	27
571.829	23
573.034	31
574.237	25.5
575.44	31
576.643	29.5
577.846	27
579.048	26
580.252	31.5
581.454	29.5
582.656	26.5
583.857	24
585.059	26.5
586.26	27
587.461	27
588.662	25
589.863	28
591.065	28.5
592.265	28
593.465	30.5
594.665	33
595.865	31.5
597.065	26
598.264	26
599.463	27
600.662	28
601.861	23
603.06	26.5
604.258	26.5
605.457	29.5
606.655	23.5
607.853	28
609.05	27
610.248	29.5
611.444	24
612.641	27
613.838	26
615.034	28.5
616.231	22
617.427	28
618.624	26
619.82	24.5
621.015	25.5
622.21	30.5
623.405	31
624.6	29.5
625.795	27
626.99	25
628.185	28
629.378	25
630.572	27.5
631.766	26
632.96	29.5
634.154	26
635.346	27.5
636.54	20
637.733	27
638.926	25
640.117	27.5
641.31	24.5
642.502	29
643.693	27.5
644.885	28
646.077	29
647.267	26
648.459	27
649.65	25
650.84	23
652.031	25.5
653.222	24
654.411	29.5
655.601	27.5
656.791	32.5
657.98	30
659.17	26
660.358	28.5
661.547	26
662.737	27
663.924	24.5
665.113	26
666.3	28
667.489	22.5
668.676	30
669.864	27.5
671.05	28
672.238	27
673.424	26
674.612	25
675.798	30.5
676.985	27.5
678.17	28
679.357	28
680.542	26
681.728	30
682.913	27
684.097	30.5
685.283	27.5
686.467	29.5
687.652	31
688.836	30.5
690.02	29
691.205	29
692.388	25
693.571	29.5
694.755	30
695.938	30.5
697.12	29.5
698.304	29
699.486	27
700.668	29
701.851	31
703.032	35.5
704.214	36
705.395	26.5
706.577	34
707.758	37
708.939	33
710.119	33
711.301	30
712.481	33.5
713.661	30.5
714.84	32
716.02	34
717.201	31.5
718.38	25.5
719.559	32
720.737	27
721.916	30
723.094	26.5
724.274	24
725.452	26
726.63	29
727.808	27
728.985	31
730.162	23
731.339	26
732.516	28
733.693	28
734.87	24
736.046	31
737.222	30
738.398	29
739.574	27.5
740.75	29
741.925	28.5
743.1	27.5
744.276	25
745.45	27.5
746.625	28
747.8	27.5
748.974	27
750.148	26
751.322	25
752.496	25.5
753.67	22.5
754.843	23.5
756.016	28
757.189	28
758.362	28
759.534	27
760.706	28.5
761.878	24.5
763.051	23.5
764.223	26.5
765.394	28
766.565	24.5
767.736	24.5
768.907	28
770.078	26
771.249	24
772.419	31
773.589	24
774.759	26.5
775.93	30
777.098	25.5
778.268	22.5
779.438	28
780.607	26
781.775	27.5
782.944	23.5
784.113	25.5
785.28	25.5
786.449	29.5
787.617	25.5
788.784	32
789.952	30
791.12	24.5
792.286	30
793.453	30.5
794.62	25
795.786	28
796.953	28.5
798.118	27
799.285	28
800.45	28.5
801.616	25
802.782	30.5
803.946	26.5
805.112	29
806.276	25.5
807.441	27
808.605	29.5
809.77	29
810.933	27
812.098	27
813.261	28
814.425	29
815.588	24
816.75	29.5
817.914	31.5
819.076	29.5
820.239	31
821.401	29.5
822.564	30
823.725	26
824.886	26.5
826.048	28
827.209	28
828.37	26.5
829.532	23
830.692	26
831.852	28.5
833.013	23.5
834.173	25
835.333	29
836.493	30.5
837.653	24.5
838.812	24
839.972	24
841.13	24.5
842.289	26.5
843.447	28
844.607	28
845.765	26
846.922	24.5
848.08	25.5
849.237	25.5
850.396	27.5
851.553	22
852.71	23.5
853.867	23
855.023	27
856.179	29
857.337	27
858.493	26.5
859.649	26.5
860.804	28
861.96	22
863.115	30.5
864.27	26.5
865.425	27.5
866.58	26.5
867.734	28
868.888	25
870.043	28.5
871.197	28
872.35	25.5
873.504	27
874.658	27
875.811	24.5
876.964	27.5
878.117	25
879.27	24.5
880.422	24
881.575	29.5
882.727	23
883.879	28
885.031	25
886.182	23
887.334	27.5
888.485	26.5
889.636	23
890.787	26
891.937	26
893.088	24
894.238	22.5
895.388	27
896.538	22.5
897.688	29
898.837	27
899.986	30
901.136	24.5
902.285	29.5
903.434	31
904.581	26.5
905.73	24
906.878	21.5
908.027	30
909.174	26.5
910.321	22.5
911.469	22.5
912.617	29.5
913.763	23
914.91	24.5
916.057	23.5
917.203	26
918.35	26.5
919.496	26.5
920.641	25
921.787	29.5
922.933	30
924.078	26.5
925.224	27.5
926.368	23.5
927.513	25.5
928.658	26
929.802	26.5
930.946	25.5
932.09	25.5
933.234	24
934.377	27
935.521	28
936.664	25.5
937.807	25
938.95	23.5
940.093	28
941.235	25
942.378	23.5
943.519	26.5
944.662	27
945.803	23.5
946.946	24.5
948.086	23.5
949.227	25
950.369	27
951.509	26.5
952.651	31.5
953.79	22
954.93	27.5
956.071	27.5
957.211	24.5
958.35	22
959.49	28
960.629	27.5
961.768	26.5
962.908	27.5
964.046	25
965.184	25
966.323	31
967.461	27.5
968.599	26
969.736	28
970.875	25
972.012	21.5
973.149	26.5
974.286	24.5
975.424	24
976.56	24
977.697	25
978.833	28
979.969	26
981.104	26
982.241	25
983.377	26.5
984.512	26
985.647	26
986.782	25
987.916	24
989.051	20
990.185	27.5
991.321	23
992.455	30
993.589	26
994.722	26.5
995.856	27
996.989	29
998.122	26.5
999.255	25
1000.39	22.5
1001.52	24
1002.65	27
1003.79	27
1004.92	23
1006.05	24
1007.18	24.5
1008.31	26.5
1009.44	27.5
1010.57	24.5
1011.7	23
1012.84	22
1013.97	24
1015.1	25
1016.23	23.5
1017.36	21.5
1018.49	25.5
1019.62	24.5
1020.75	29.5
1021.88	23
1023	28
1024.13	26
1025.26	26.5
1026.39	26.5
1027.52	25
1028.65	26.5
1029.78	26
1030.9	21.5
1032.03	23
1033.16	23.5
1034.29	21
1035.41	25
1036.54	24
1037.67	24.5
1038.79	27
1039.92	30
1041.04	26.5
1042.17	23.5
1043.3	24
1044.42	26
1045.55	25
1046.67	24
1047.8	24
1048.92	29
1050.05	25
1051.17	26
1052.3	23
1053.42	23.5
1054.54	23.5
1055.67	27.5
1056.79	27
1057.91	25
1059.04	26.5
1060.16	21
1061.28	25
1062.41	24
1063.53	25
1064.65	22
1065.77	22
1066.9	24.5
1068.02	21.5
1069.14	25.5
1070.26	23.5
1071.38	24.5
1072.5	25.5
1073.62	28.5
1074.74	25.5
1075.86	25
1076.98	24
1078.1	24
1079.22	22
1080.34	29
1081.46	24.5
1082.58	23.5
1083.7	25
1084.82	25
1085.94	21
1087.06	24
1088.18	25
1089.29	27
1090.41	23
1091.53	25
1092.65	24.5
1093.77	21.5
1094.88	24.5
1096	27.5
1097.12	21
1098.23	27
1099.35	23.5
1100.47	25
1101.58	22
1102.7	26.5
1103.82	26
1104.93	24
1106.05	27
1107.16	26.5
1108.28	25.5
1109.39	24
1110.51	21
1111.62	26
1112.74	22
1113.85	22
1114.96	25.5
1116.08	26
1117.19	25
1118.31	24
1119.42	27.5
1120.53	23.5
1121.65	24
1122.76	27
1123.87	24.5
1124.98	25
1126.1	24.5
1127.21	24
1128.32	24
1129.43	26.5
1130.54	23.5
1131.65	27.5
1132.76	21
1133.88	23
1134.99	25.5
1136.1	22
1137.21	25.5
1138.32	17.5
1139.43	20
1140.54	22
1141.65	26.5
1142.76	23
1143.87	26
1144.98	25
1146.08	26
1147.19	23
1148.3	21.5
1149.41	22.5
1150.52	28
1151.63	25.5
1152.73	25
1153.84	19.5
1154.95	27.5
1156.06	26
1157.17	25
1158.27	25
1159.38	23
1160.49	23
1161.59	23
1162.7	25
1163.8	24
1164.91	27
1166.02	25
1167.12	22.5
1168.23	21
1169.33	25.5
1170.44	23
1171.54	22
1172.65	27
1173.75	23
1174.86	25
1175.96	20
1177.06	25
1178.17	21
1179.27	23
1180.37	25
1181.48	24
1182.58	21.5
1183.68	20
1184.79	24.5
1185.89	24
1186.99	24
1188.09	22
1189.2	28.5
1190.3	22
1191.4	25
1192.5	26
1193.6	25.5
1194.7	25.481
1195.8	23.4711
1196.9	24.0539
1198.01	23.9243
1199.11	23.0792
1200.21	24.9369
1201.31	22.1026
1202.41	27.8274
1203.5	23.3558
1204.6	27.569
1205.7	20.4852
1206.8	24.7981
1207.9	23.2936
1209	27.4481
1210.1	24.1224
1211.2	24.4388
1212.3	22.9581
1213.39	24.2776
1214.49	22.8428
1215.59	28.421
1216.69	24.9993
1217.78	24.6054
1218.88	23.6921
1219.98	26.0678
1221.08	23.3022
1222.17	23.9139
1223.27	26.1641
1224.37	23.8608
1225.46	25.1598
1226.56	23.6095
1227.65	26.2691
1228.75	25.018
1229.84	27.2835
1230.94	21.7069
1232.03	23.9377
1233.13	21.3674
1234.22	23.4892
1235.32	22.9506
1236.41	25.3131
1237.51	23.7555
1238.6	23.1815
1239.69	20.4115
1240.79	23.8738
1241.88	22.6015
1242.97	24.5619
1244.07	20.4527
1245.16	26.1252
1246.25	22.1182
1247.35	23.4709
1248.44	22.857
1249.53	22.0728
1250.62	24.2217
1251.71	22.7116
1252.81	23.0431
1253.9	24.4795
1254.99	23.1917
1256.08	23.5969
1257.17	23.2067
1258.26	25.7756
1259.35	24.2551
1260.44	24.5477
1261.53	24.1088
1262.62	26.7477
1263.71	23.7084
1264.8	26.3076
1265.89	22.2715
1266.98	24.9612
1268.07	26.5589
1269.16	26.1227
1270.25	24.3266
1271.34	21.5966
1272.43	23.9297
1273.52	22.661
1274.6	23.6245
1275.69	25.0295
1276.78	25.4286
1277.87	24.2379
1278.95	21.611
1280.04	22.2554
1281.13	23.889
1282.22	23.5873
1283.3	21.2535
1284.39	24.5641
1285.48	22.7408
1286.56	23.4918
1287.65	25.1516
1288.73	26.2642
1289.82	25.7404
1290.91	25.7789
1291.99	23.7693
1293.08	22.6465
1294.16	24.2688
1295.24	23.6394
1296.33	24.9467
1297.41	24.1373
1298.5	22.5794
1299.58	24.1455
1300.67	23.6864
1301.75	19.6788
1302.83	23.0762
1303.92	25.2914
1305	24.0376
1306.08	24.5547
1306.4	25
1307.49	26
1308.58	26
1309.66	25
1310.75	22.5
1311.84	21.5
1312.93	26.5
1314.01	22
1315.1	22
1316.19	24
1317.27	23
1318.36	23.5
1319.45	24
1320.53	24
1321.62	25
1322.71	21
1323.79	25.5
1324.88	26
1325.96	23
1327.05	22
1328.13	20.5
1329.22	22
1330.3	23
1331.39	23
1332.47	24.5
1333.55	27
1334.64	21
1335.72	25
1336.81	25.5
1337.89	23.5
1338.97	29
1340.06	24.5
1341.14	23.5
1342.22	21
1343.3	25
1344.39	20.5
1345.47	22.5
1346.55	25.5
1347.63	25.5
1348.71	26
1349.8	20.5
1350.88	21.5
1351.96	23.5
1353.04	22.5
1354.12	25.5
1355.2	25.5
1356.28	18
1357.36	24
1358.44	24.5
1359.52	23
1360.6	25.5
1361.68	26.5
1362.76	22
1363.84	21
1364.92	20.5
1366	26
1367.08	25.5
1368.16	23
1369.23	23
1370.31	24.5
1371.39	22.5
1372.47	22
1373.55	24.5
1374.62	24
1375.7	25.5
1376.78	23
1377.86	22
1378.93	23
1380.01	23
1381.09	26
1382.16	25.5
1383.24	26
1384.32	23.5
1385.39	23
1386.47	23.5
1387.54	27
1388.62	26.5
1389.69	23.5
1390.77	24.5
1391.84	22
1392.92	27
1393.99	25
1395.07	27.5
1396.14	27
1397.21	25.5
1398.29	20
1399.36	28
1400.44	21.5
1401.51	23
1402.58	25
1403.66	29.5
1404.73	26.5
1405.8	22
1406.87	24
1407.95	22
1409.02	25.5
1410.09	29
1411.16	24.5
1412.23	27
1413.3	26.5
1414.38	28
1415.45	21.5
1416.52	26.5
1417.59	26
1418.66	24
1419.73	22
1420.8	20.5
1421.87	25.5
1422.94	26.5
1424.01	24
1425.08	28.5
1426.15	25.5
1427.22	27
1428.29	26.5
1429.36	27
1430.43	25
1431.49	25
1432.56	25
1433.63	27
1434.7	27
1435.77	30
1436.83	21.5
1437.9	25
1438.97	21
1440.04	23
1441.1	23.5
1442.17	23
1443.24	26.5
1444.3	24
1445.37	24.5
1446.44	28
1447.5	22
1448.57	26
1449.63	25
1450.7	23.5
1451.77	25
1452.83	21.5
1453.9	25
1454.96	24
1456.03	25
1457.09	25.5
1458.15	26
1459.22	24.5
1460.28	23
1461.35	28
1462.41	24
1463.47	23.5
1464.54	27.5
1465.6	23
1466.66	22.5
1467.73	21
1468.79	25
1469.85	26
1470.91	23
1471.98	23.5
1473.04	27
1474.1	21
1475.16	29.5
1476.22	27.5
1477.28	25.5
1478.35	21
1479.41	24
1480.47	26
1481.53	23
1482.59	22.5
1483.65	22.5
1484.71	19
1485.77	26
1486.83	26.5
1487.89	25.5
1488.95	21.5
1490.01	30
1491.07	24.5
1492.13	24.5
1493.18	20.5
1494.24	22
1495.3	28
1496.36	24.5
1497.42	27
1498.48	25.5
1499.53	25
1500.59	26
1501.65	24.5
1502.71	23.5
1503.76	24.5
1504.82	24.5
1505.88	24
1506.93	27
1507.99	25
1509.05	25
1510.1	28.5
1511.16	22
1512.21	22.5
1513.27	25
1514.33	25
1515.38	26
1516.44	24.5
1517.49	21.5
1518.55	26.5
1519.6	21.5
1520.66	27.5
1521.71	21
1522.76	24.5
1523.82	20
1524.87	25
1525.93	23
1526.98	22
1528.03	24
1529.08	23.5
1530.14	24.5
1531.19	23.5
1532.24	27.5
1533.3	27.5
1534.35	27
1535.4	21.5
1536.45	27.5
1537.5	22.5
1538.56	23
1539.61	23.5
1540.66	26
1541.71	21.5
1542.76	25
1543.81	26
1544.86	24
1545.91	25
1546.96	22
1548.01	25.5
1549.06	28.5
1550.11	25
1551.16	23
1552.21	24
1553.26	29
1554.31	23
1555.36	25
1556.41	22
1557.46	28
1558.51	25
1559.56	24
1560.6	21
1561.65	20
1562.7	27
1563.75	31
1564.79	24
1565.84	26.5
1566.89	23
1567.94	27
1568.98	27
1570.03	25
1571.08	23.5
1572.12	24.5
1573.17	23
1574.22	25.5
1575.26	24.5
1576.31	24
1577.35	20.5
1578.4	23.5
1579.44	26
1580.49	24
1581.53	23.5
1582.58	25
1583.62	25
1584.67	26
1585.71	27.5
1586.76	27
1587.8	25.5
1588.84	22.5
1589.89	21
1590.93	22
1591.97	26
1593.02	27
1594.06	24.5
1595.1	28.5
1596.14	23.5
1597.19	25
1598.23	25.5
1599.27	21
1600.31	25
1601.36	22
1602.4	27.5
1603.44	27
1604.48	27.5
1605.52	23.5
1606.56	22
1607.6	21
1608.64	21.5
1609.68	24.5
1610.72	23.5
1611.76	27
1612.81	25
1613.84	20
1614.88	24.5
1615.92	26
1616.96	26
1618	27
1619.04	24.5
1620.08	23
1621.12	19
1622.16	26.5
1623.2	27
1624.23	27
1625.27	21
1626.31	28.5
1627.35	27
1628.39	26.5
1629.42	24
1630.46	26.5
1631.5	28
1632.53	26
1633.57	26
1634.61	24.5
1635.64	27.5
1636.68	26
1637.72	26.5
1638.75	24.5
1639.79	26
1640.82	27
1641.86	24.5
1642.89	25
1643.93	26
1644.96	25.5
1646	27
1647.03	22
1648.07	26
1649.1	25
1650.14	23
1651.17	25.5
1652.21	23.5
1653.24	25
1654.27	24
1655.31	25
1656.34	24
1657.37	25
1658.41	25.5
1659.44	26
1660.47	26
1661.5	27
1662.53	24
1663.57	27
1664.6	27
1665.63	27.5
1666.66	26
1667.69	23
1668.72	25.5
1669.76	29
1670.79	25.5
1671.82	21
1672.85	24.5
1673.88	23
1674.91	27.5
1675.94	26
1676.97	27.5
1678	22
1679.03	23.5
1680.06	25.5
1681.09	25
1682.12	26
1683.15	19
1684.17	26.5
1685.2	24
1686.23	25.5
1687.26	23
1688.29	23
1689.32	25
1690.34	26
1691.37	25.5
1692.4	26
1693.43	26
1694.45	24
1695.48	26
1696.51	24
1697.54	25
1698.56	25.5
1699.59	24.5
1700.61	15.5
1701.64	28
1702.67	28
1703.69	25.5
1704.72	27.5
1705.74	23
1706.77	22.5
1707.79	25.5
1708.82	24.5
1709.84	25
1710.87	25
1711.89	22
1712.92	24
1713.94	26.5
1714.97	22
1715.99	25.5
1717.01	25
1718.04	24
1719.06	26
1720.08	26.5
1721.11	26
1722.13	30
1723.15	24
1724.18	25.5
1725.2	25
1726.22	25
1727.24	27
1728.26	24
1729.29	23
1730.31	26.5
1731.33	23
1732.35	23
1733.37	21
1734.39	27
1735.41	24.5
1736.43	25
1737.45	26.5
1738.47	31
1739.5	22
1740.52	26.5
1741.53	22.5
1742.55	24.5
1743.57	25.5
1744.59	20.5
1745.61	24
1746.63	23.5
1747.65	24
1748.67	20
1749.69	27.5
1750.71	27.5
1751.72	24
1752.74	27.5
1753.76	26
1754.78	24
1755.8	26.5
1756.81	30.5
1757.83	28
1758.85	24.5
1759.87	23.5
1760.88	23
1761.9	24
1762.92	26.5
1763.93	24
1764.95	24
1765.96	25
1766.98	23.5
1768	27
1769.01	26
1770.03	24.5
1771.04	25
1772.06	22
1773.07	23
1774.09	23.5
1775.1	23
1776.12	21
1777.13	23
1778.15	26
1779.16	24
1780.17	28.5
1781.19	19
1782.2	25.5
1783.21	26.5
1784.23	25.5
1785.24	27
1786.25	23
1787.27	26.5
1788.28	28
1789.29	26
1790.3	29
1791.32	21.5
1792.33	24.5
1793.34	24.5
1794.35	25
1795.36	24.5
1796.38	24
1797.39	25.5
1798.4	25
1799.41	23.5
1800.42	23.5
1801.43	26
1802.44	26.5
1803.45	28.5
1804.46	22
1805.47	22
1806.48	26.5
1807.49	25.5
1808.5	29
1809.51	22.5
1810.52	25
1811.53	27
1812.53	26
1813.54	23
1814.55	27
1815.56	26
1816.57	29
1817.58	23
1818.59	23
1819.59	22
1820.6	24
1821.61	25
1822.62	25.5
1823.62	25
1824.63	24
1825.64	26.5
1826.64	27
1827.65	26
1828.66	22.5
1829.66	23.5
1830.67	23.5
1831.67	25.5
1832.68	22.5
1833.69	22.5
1834.69	26
1835.7	22
1836.7	19
1837.71	29.5
1838.71	25
1839.72	24
1840.72	24.5
1841.72	24
1842.73	23.5
1843.73	24.5
1844.74	25.5
1845.74	27.5
1846.74	22.5
1847.75	25
1848.75	26
1849.75	19.5
1850.76	26
1851.76	22
1852.76	23
1853.76	24
1854.77	30
1855.77	25
1856.77	22
1857.77	24
1858.78	24.5
1859.78	22.5
1860.78	27
1861.78	24
1862.78	22
1863.78	27
1864.78	26
1865.78	23.5
1866.78	23.5
1867.78	22.5
1868.78	23
1869.78	23.5
1870.78	29
1871.78	23.5
1872.78	19.5
1873.78	21
1874.78	24
1875.78	25
1876.78	25
1877.78	26.5
1878.78	23
1879.78	20.5
1880.77	22.5
1881.77	28
1882.77	22
1883.77	25.5
1884.77	22.5
1885.76	19.5
1886.76	23
1887.76	21
1888.75	26
1889.75	24
1890.75	21.5
1891.74	23.5
1892.74	23
1893.74	25
1894.73	23.5
1895.73	21
1896.73	25
1897.72	25
1898.72	27.5
1899.71	20.5
1900.71	26.5
1901.7	26
1902.7	21
1903.69	27
1904.69	27
1905.68	22.5
1906.68	26
1907.67	27
1908.66	26
1909.66	24.5
1910.65	25.5
1911.64	26
1912.64	25
1913.63	22
1914.62	23
1915.62	22.5
1916.61	25
1917.6	25
1918.6	27
1919.59	20.5
1920.58	24.5
1921.57	29
1922.56	23
1923.55	24
1924.55	25.5
1925.54	27
1926.53	25
1927.52	23.5
1928.51	24.5
1929.5	26.5
1930.49	25.5
1931.48	26.5
1932.47	25
1933.46	26
1934.45	23
1935.44	20
1936.43	22
1937.42	23
1938.41	25.5
1939.4	24.5
1940.39	22.5
1941.38	25
1942.37	26.5
1943.36	26
1944.35	24
1945.33	25
1946.32	25.5
1947.31	24
1948.3	24
1949.29	24
1950.27	25.5
1951.26	22
1952.25	24.5
1953.24	25.5
1954.22	22.5
1955.21	25
1956.2	26.5
1957.18	28.5
1958.17	26.5
1959.16	25
1960.14	25
1961.13	26.5
1962.11	25
1963.1	23
1964.08	28.5
1965.07	21.5
1966.05	25
1967.04	25
1968.02	21
1969.01	24
1969.99	21.5
1970.98	25.5
1971.96	24.5
1972.95	22
1973.93	21
1974.91	24.5
1975.9	25
1976.88	21
1977.86	23.5
1978.85	24
1979.83	26
1980.81	25.5
1981.8	25
1982.78	24.5
1983.76	25.5
1984.74	23
1985.73	26.5
1986.71	24
1987.69	23.5
1988.67	25
1989.65	25.5
1990.63	18
1991.62	24
1992.6	21
1993.58	24.5
1994.56	23
1995.54	25
1996.52	23.5
1997.5	23
1998.48	23.5
1999.46	23
2000.44	29
2001.42	18
2002.4	18.5
2003.38	23
2004.36	24.5
2005.34	23.5
2006.32	27
2007.29	25.5
2008.27	23.5
2009.25	24.5
2010.23	25
2011.21	25
2012.19	26.5
2013.17	24.5
2014.14	25
2015.12	19.5
2016.1	26.5
2017.07	27
2018.05	26
2019.03	26
2020.01	23.5
2020.98	25.5
2021.96	25
2022.94	20.5
2023.91	17
2024.89	25
2025.86	25
2026.84	20.5
2027.82	24
2028.79	24
2029.77	23
2030.74	21
2031.72	25
2032.69	25.5
2033.67	24
2034.64	23
2035.62	22.5
2036.59	22.5
2037.56	27
2038.54	25.5
2039.51	24.5
2040.49	22.5
2041.46	23.5
2042.43	25.5
2043.41	22
2044.38	25
2045.35	22.5
2046.32	25
2047.3	22
2048.27	24.5
2049.24	23
2050.21	19.5
2051.19	25.5
2052.16	24.5
2053.13	20.5
2054.1	20
2055.07	20.5
2056.05	24.5
2057.02	18
2057.99	27
2058.96	26.5
2059.93	23
2060.9	25.5
2061.87	23
2062.84	22.5
2063.81	24.5
2064.78	25
2065.75	23.5
2066.72	25
2067.69	24.5
2068.66	22
2069.63	21
2070.6	25.5
2071.57	20.5
2072.54	19
2073.5	27
2074.47	25.5
2075.44	25
2076.41	25
2077.38	22
2078.35	28
2079.31	23.5
2080.28	23
2081.25	20
2082.22	23.5
2083.18	22
2084.15	27
2085.12	25.5
2086.08	21
2087.05	22
2088.02	22
2088.98	23
2089.95	22
2090.92	22
2091.88	21
2092.85	23.5
2093.81	23.5
2094.78	27
2095.74	22
2096.71	22.5
2097.67	21
2098.64	24
2099.6	23
2100.57	26
2101.53	23.5
2102.5	24.5
2103.46	26
2104.42	27
2105.39	25
2106.35	20.5
2107.32	21
2108.28	23
2109.24	24.5
2110.21	26
2111.17	22
2112.13	22
2113.09	22.5
2114.06	21
2115.02	25
2115.98	25
2116.94	22
2117.91	24.5
2118.87	27.5
2119.83	22.5
2120.79	24
2121.75	25
2122.71	23.5
2123.67	27.5
2124.63	20
2125.6	24.5
2126.56	25
2127.52	26.5
2128.48	20
2129.44	22.5
2130.4	23
2131.36	21
2132.32	27
2133.28	25
2134.23	23.5
2135.19	22
2136.15	24
2137.11	22.5
2138.07	24
2139.03	21
2139.99	23
2140.95	24
2141.9	25.5
2142.86	21.9916
2143.82	20.5153
2144.78	24.4669
2145.74	20.5885
2146.69	21.0493
2147.65	25.2923
2148.61	25.5897
2149.57	25.1901
2150.52	22.5278
2151.48	21.7934
2152.44	23.2886
2153.39	24.4862
2154.35	21.8091
2155.31	24.5282
2156.26	19.2291
2157.22	23.4707
2158.17	20.1895
2159.13	22.4757
2160.08	22.8918
2161.04	22.0078
2161.99	24.0759
2162.95	22.3776
2163.91	22.506
2164.86	23.3249
2165.81	20.2189
2166.77	21.1191
2167.72	21.1617
2168.68	20.1377
2169.63	22.9123
2170.58	23.8251
2171.54	20.8661
2172.49	22.5838
2173.45	23.3503
2174.4	21.782
2175.35	22.1755
2176.31	21.8913
2177.26	23.475
2178.21	23.1019
2179.16	22.4559
2180.12	20.8463
2181.07	21.3904
2182.02	21.6433
2182.97	22.1393
2183.92	21.1875
2184.88	22.322
2185.83	22.023
2186.78	21.9243
2187.73	22.8339
2188.68	20.6651
2189.63	24.6765
2190.58	23.4939
2191.53	22.7713
2192.49	22.0097
2193.43	24.6765
2194.39	24.0489
2195.34	21.5382
2196.28	20.5511
2197.24	19.9497
2198.19	21.8277
2199.13	22.0058
2200.08	23.9708
2201.03	21.5192
2201.98	21.6267
2202.93	21.4245
2203.88	22.2003
2204.83	22.785
2205.78	24.0262
2206.73	19.6555
2207.67	24.0512
2208.62	22.9092
2209.57	24.2637
2210.52	23.8471
2211.47	22.2697
2212.41	23.1148
2213.36	22.6313
2214.31	23.379
2215.26	19.7565
2216.2	22.0004
2217.15	20.9815
2218.1	21.4754
2219.04	18.9682
2219.99	24.5863
2220.93	20.964
2221.88	24.0096
2222.83	22.418
2223.77	22.0634
2224.72	21.1661
2225.66	23.2744
2226.61	25.6438
2227.55	22.681
2228.5	25.2464
2229.44	23.1298
2230.39	20.3192
2231.33	23.7971
2232.28	23.5228
2233.22	24.9135
2234.17	22.6285
2235.11	24.3316
2236.06	22.6567
2237	23.1721
2237.94	21.6265
2238.89	21.0291
2239.83	21.7449
2240.06	22
2241.01	22
2241.96	22
2242.9	22.5
2243.85	23
2244.8	25
2245.75	23
2246.69	24.5
2247.64	23
2248.59	22.5
2249.53	20
2250.48	22
2251.43	23
2252.37	25
2253.32	25
2254.27	25
2255.21	22.5
2256.16	21
2257.1	24
2258.05	23
2259	21.5
2259.94	23.5
2260.89	25
2261.83	22.5
2262.78	24.5
2263.72	25
2264.67	21.5
2265.61	23.5
2266.56	24.5
2267.5	23
2268.44	25
2269.39	22
2270.33	22.5
2271.27	26
2272.22	22.5
2273.16	18.5
2274.1	21.5
2275.05	25.5
2275.99	24.5
2276.93	23.5
2277.88	21.5
2278.82	24
2279.76	25
2280.7	25
2281.65	25.5
2282.59	21
2283.53	24.5
2284.47	21
2285.41	24.5
2286.35	22
2287.29	21
2288.24	23
2289.18	22
2290.12	24.5
2291.06	23.5
2292	23
2292.94	22
2293.88	24
2294.82	23.5
2295.76	22
2296.7	23
2297.64	24.5
2298.58	23
2299.52	26
2300.46	24
2301.4	25
2302.34	23
2303.28	22.5
2304.21	21
2305.15	22.5
2306.09	23
2307.03	26
2307.97	20.5
2308.91	24
2309.84	24.5
2310.78	21
2311.72	24
2312.66	25.5
2313.59	22
2314.53	23.5
2315.47	23
2316.4	22
2317.34	20
2318.28	17
2319.22	19
2320.15	24
2321.09	25.5
2322.02	25
2322.96	24.5
2323.89	24
2324.83	25
2325.77	22.5
2326.7	25
2327.64	24
2328.57	22
2329.51	24
2330.44	22
2331.38	20.5
2332.31	23
2333.25	22
2334.18	26.5
2335.11	22
2336.05	25
2336.98	23.5
2337.92	22
2338.85	25
2339.78	23
2340.72	24.5
2341.65	18.5
2342.58	17.5
2343.52	26
2344.45	23.5
2345.38	24.5
2346.31	24
2347.25	27.5
2348.18	24
2349.11	20
2350.04	24
2350.97	25
2351.9	24.5
2352.84	24.5
2353.77	22
2354.7	22.5
2355.63	20
2356.56	23
2357.49	23
2358.42	21
2359.35	23.5
2360.28	22
2361.21	23
2362.14	26
2363.07	21.5
2364	21.5
2364.93	24
2365.86	23
2366.79	23.5
2367.72	21.5
2368.65	24
2369.58	21
2370.51	23
2371.44	25.5
2372.36	25
2373.29	24
2374.22	25
2375.15	23.5
2376.08	23
2377.01	23
2377.93	23
2378.86	25
2379.79	21.5
2380.72	24.5
2381.64	18
2382.57	23
2383.5	25
2384.42	23
2385.35	26.5
2386.28	22
2387.2	24.5
2388.13	24
2389.06	24
2389.98	22.5
2390.91	22.5
2391.83	25
2392.76	28.5
2393.69	22.5
2394.61	25.5
2395.54	24
2396.46	23
2397.39	26.5
2398.31	28.5
2399.23	22.5
2400.16	23
2401.08	20
2402.01	23
2402.93	23.5
2403.86	24
2404.78	26
2405.7	22.5
2406.63	20
2407.55	27.5
2408.47	26
2409.4	24.5
2410.32	20.5
2411.24	22
2412.17	25
2413.09	24.5
2414.01	25.5
2414.93	26
2415.85	20.5
2416.78	24
2417.7	21
2418.62	23.5
2419.54	24.5
2420.46	24
2421.38	26
2422.31	23
2423.23	21
2424.15	24.5
2425.07	25.5
2425.99	24.5
2426.91	21
2427.83	19.5
2428.75	23
2429.67	18
2430.59	22.5
2431.51	24
2432.43	28
2433.35	23.5
2434.27	24
2435.19	23.5
2436.11	25
2437.03	25
2437.94	23
2438.86	21
2439.78	24
2440.7	27
2441.62	27
2442.54	24.5
2443.46	22.5
2444.37	24.5
2445.29	24.5
2446.21	25
2447.13	21.5
2448.04	24.5
2448.96	24
2449.88	22.5
2450.8	26
2451.71	22.5
2452.63	24.5
2453.55	25
2454.46	24
2455.38	21.5
2456.29	24
2457.21	22
2458.13	26.5
2459.04	25
2459.96	24
2460.87	26
2461.79	25
2462.7	26
2463.62	21.5
2464.53	23.5
2465.45	24
2466.36	24
2467.28	22
2468.19	27
2469.11	27
2470.02	21
2470.93	25.5
2471.85	23
2472.76	24.5
2473.67	22
2474.59	23
2475.5	27
2476.42	17
2477.33	25
2478.24	20
2479.15	24
2480.07	23.5
2480.98	25.5
2481.89	26.5
2482.8	22
2483.72	26
2484.63	27.5
2485.54	23
2486.45	27.5
2487.36	29
2488.27	24.5
2489.19	21
2490.1	22
2491.01	24
2491.92	25
2492.83	24
2493.74	23
2494.65	22
2495.56	21.5
2496.47	22
2497.38	26
2498.29	25.5
2499.2	25.5
2500.11	28
2501.02	24.5
2501.93	22.5
2502.84	27
2503.75	24.5
2504.66	25
2505.57	19
2506.47	25.5
2507.38	23.5
2508.29	20.5
2509.2	25
2510.11	29.5
2511.02	26.5
2511.92	22
2512.83	26
2513.74	26
2514.65	20.5
2515.55	27.5
2516.46	26
2517.37	27.5
2518.28	24
2519.18	25
2520.09	25.5
2521	25
2521.9	23
2522.81	26.5
2523.72	23.5
2524.62	24
2525.53	23.5
2526.43	23.5
2527.34	24.5
2528.24	23.5
2529.15	23.5
2530.06	21.5
2530.96	25.5
2531.87	21.5
2532.77	28
2533.68	24.5
2534.58	25.5
2535.48	27.5
2536.39	30
2537.29	28.5
2538.2	25
2539.1	25
2540	25
2540.91	24.5
2541.81	26.5
2542.72	29.5
2543.62	24
2544.52	22.5
2545.42	28.5
2546.33	23
2547.23	24
2548.13	23
2549.04	26
2549.94	21.5
2550.84	23.5
2551.74	25.5
2552.64	24
2553.55	19
2554.45	23
2555.35	24
2556.25	22
2557.15	23.5
2558.05	20.5
2558.95	27.5
2559.85	23.5
2560.76	25
2561.66	25.5
2562.56	25.5
2563.46	24
2564.36	22.5
2565.26	23.5
2566.16	20.5
2567.06	23.5
2567.96	26.5
2568.86	22.5
2569.76	22
2570.66	24.5
2571.55	25
2572.45	23
2573.35	25
2574.25	25
2575.15	22.5
2576.05	22
2576.95	25.5
2577.84	20.5
2578.74	24
2579.64	25.5
2580.54	26
2581.44	25
2582.33	25
2583.23	24.5
2584.13	23.5
2585.03	24
2585.92	26.5
2586.82	27.5
2587.72	24.5
2588.61	23
2589.51	21.5
2590.41	23
2591.3	22
2592.2	28
2593.09	23.5
2593.99	22.5
2594.89	21
2595.78	27
2596.68	24.5
2597.57	25
2598.47	24.5
2599.36	26.5
2600.26	25.5
2601.15	24.5
2602.05	26
2602.94	28.5
2603.84	27
2604.73	25.5
2605.63	26
2606.52	23.5
2607.41	21
2608.31	25
2609.2	24.5
2610.09	21
2610.99	23
2611.88	26.5
2612.77	26
2613.67	21
2614.56	25.5
2615.45	27
2616.35	22
2617.24	24.5
2618.13	22.5
2619.02	24.5
2619.91	24
2620.81	21.5
2621.7	26.5
2622.59	22.5
2623.48	24.5
2624.37	24
2625.26	26.5
2626.15	24.5
2627.05	25
2627.94	19.5
2628.83	25.5
2629.72	22.5
2630.61	25
2631.5	24
2632.39	23
2633.28	27.5
2634.17	19.5
2635.06	21
2635.95	19.5
2636.84	21
2637.73	21
2638.62	23
2639.51	18.5
2640.4	24.5
2641.28	27
2642.17	23.5
2643.06	28
2643.95	24.5
2644.84	25.5
2645.73	26
2646.62	23.5
2647.5	22
2648.39	26
2649.28	28
2650.17	24.5
2651.05	26
2651.94	22.5
2652.83	27
2653.72	25.5
2654.6	24.5
2655.49	22
2656.38	23.5
2657.26	22
2658.15	22.5
2659.04	24.5
2659.92	23.5
2660.81	22.5
2661.69	29
2662.58	24
2663.47	24
2664.35	21
2665.24	25
2666.12	23
2667.01	22
2667.89	28.5
2668.78	25
2669.66	25
2670.55	26.5
2671.43	22
2672.32	24
2673.2	22
2674.08	23.5
2674.97	22
2675.85	26.5
2676.74	21
2677.62	26
2678.5	24.5
2679.39	26.5
2680.27	24
2681.15	24
2682.04	25
2682.92	29
2683.8	21.5
2684.68	23
2685.57	25
2686.45	27.5
2687.33	24
2688.21	23.5
2689.09	25
2689.98	24
2690.86	24
2691.74	21
2692.62	24
2693.5	21.5
2694.38	20.5
2695.27	25
2696.15	24
2697.03	26.5
2697.91	20.5
2698.79	22
2699.67	24
2700.55	26.5
2701.43	23
2702.31	19.5
2703.19	23
2704.07	27
2704.95	24.5
2705.83	26
2706.71	18
2707.59	23
2708.47	27.5
2709.34	25
2710.22	24.5
2711.1	25
2711.98	26
2712.86	21
2713.74	24
2714.62	23.5
2715.49	26
2716.37	21.5
2717.25	24
2718.13	24.5
2719.01	24
2719.88	24.5
2720.76	26
2721.64	27.5
2722.51	23
2723.39	21.5
2724.27	24.5
2725.14	27
2726.02	23.5
2726.9	25.5
2727.77	26.5
2728.65	25
2729.53	28
2730.4	25
2731.28	26
2732.15	21.5
2733.03	26.5
2733.91	21
2734.78	24
2735.66	24
2736.53	23
2737.41	22
2738.28	25
2739.16	23
2740.03	24.5
2740.9	21.5
2741.78	24
2742.65	25
2743.53	24.5
2744.4	21
2745.27	23
2746.15	23
2747.02	22.5
2747.89	26.5
2748.77	26
2749.64	22.5
2750.51	24.5
2751.39	22
2752.26	27
2753.13	21.5
2754.01	24
2754.88	25.5
2755.75	24
2756.62	22.5
2757.49	24.5
2758.37	23
2759.24	21
2760.11	26
2760.98	24
2761.85	29
2762.72	23.5
2763.59	24
2764.46	26
2765.34	25.5
2766.21	26.5
2767.08	24
2767.95	24.5
2768.82	21
2769.69	23
2770.56	27
2771.43	24
2772.3	24
2773.17	23
2774.04	22
2774.91	24
2775.78	23
2776.65	21
2777.51	24
2778.38	22
2779.25	23
2780.12	21
2780.99	23.5
2781.86	22
2782.73	27.5
2783.59	25
2784.46	24
2785.33	23
2786.2	24
2787.07	23.5
2787.93	24
2788.8	22
2789.67	24.5
2790.54	26.5
2791.4	25
2792.27	22.5
2793.14	23
2794	25
2794.87	24
2795.74	27
2796.6	19
2797.47	25.5
2798.34	25
2799.2	25
2800.07	21.5
2800.93	24
2801.8	23
2802.66	21
2803.53	27.5
2804.39	27
2805.26	23
2806.12	25.5
2806.99	23.5
2807.85	22
2808.72	25.5
2809.58	28.5
2810.45	26.5
2811.31	24
2812.18	23
2813.04	24
2813.9	20
2814.77	23
2815.63	26.5
2816.49	25
2817.36	26
2818.22	24.5
2819.08	27
2819.95	24.5
2820.81	23.5
2821.67	21
2822.53	21
2823.4	21.5
2824.26	25
2825.12	24
2825.98	27
2826.84	17.5
2827.71	28.5
2828.57	23.5
2829.43	30.5
2830.29	22.5
2831.15	26
2832.01	22
2832.88	24.5
2833.74	23
2834.6	22.5
2835.46	26.5
2836.32	23
2837.18	21
2838.04	25.5
2838.9	24
2839.76	22
2840.62	28
2841.48	25
2842.34	24.5
2843.2	20.5
2844.06	23
2844.92	24.5
2845.78	21.5
2846.63	25.5
2847.49	23
2848.35	18
2849.21	24
2850.07	26.5
2850.93	25
2851.79	23.5
2852.64	27.5
2853.5	22
2854.36	26
2855.22	23
2856.08	25
2856.93	25
2857.79	21.5
2858.65	26.5
2859.51	23
2860.36	24.5
2861.22	25.5
2862.08	25
2862.93	23.5
2863.79	24
2864.65	23.5
2865.5	23
2866.36	24
2867.22	25.5
2868.07	28.5
2868.93	22
2869.78	23.5
2870.64	25.5
2871.49	26
2872.35	22.5
2873.21	26.5
2874.06	28
2874.91	25
2875.77	23.5
2876.62	25
2877.48	25
2878.33	26
2879.19	25
2880.04	26.5
2880.9	24
2881.75	26
2882.6	28
2883.46	26
2884.31	27
2885.17	24.5
2886.02	24.5
2886.87	28.5
2887.73	27
2888.58	29
2889.43	25
2890.28	30.5
2891.14	30.5
2891.99	28.5
2892.84	32
2893.69	29.5
2894.55	27
2895.4	33
2896.25	36.5
2897.1	33.5
2897.95	33.5
2898.8	33.5
2899.66	37
2900.51	38
2901.36	36.5
2902.21	35.5
2903.06	38.5
2903.91	38
2904.76	35
2905.61	40
2906.46	38
2907.31	37
2908.16	37
2909.01	38.5
2909.86	37.5
2910.71	32.5
2911.56	37.5
2912.41	34
2913.26	31
2914.11	31.5
2914.96	28
2915.81	30.5
2916.66	28
2917.51	25
2918.36	25
2919.2	29.5
2920.05	24.5
2920.9	26.5
2921.75	25
2922.6	24
2923.45	29.5
2924.29	25
2925.14	25
2925.99	25
2926.84	25.5
2927.68	24.5
2928.53	23.5
2929.38	24
2930.23	26
2931.07	22
2931.92	25.5
2932.77	20.5
2933.61	23.5
2934.46	23
2935.3	25
2936.15	27
2937	23.5
2937.84	24
2938.69	22.5
2939.53	25.5
2940.38	21
2941.23	23
2942.07	21
2942.92	27.5
2943.76	22.5
2944.61	26.5
2945.45	23.5
2946.3	23.5
2947.14	26
2947.98	23.5
2948.83	23.5
2949.67	23.5
2950.52	26.5
2951.36	27
2952.2	29.5
2953.05	25
2953.89	26.5
2954.74	25.5
2955.58	25
2956.42	28
2957.27	27
2958.11	26.5
2958.95	27
2959.79	29.5
2960.64	31
2961.48	31.5
2962.32	27.5
2963.16	26
2964.01	25.5
2964.85	29.5
2965.69	32
2966.53	30.5
2967.37	28
2968.21	29.5
2969.06	27
2969.9	27
2970.74	25
2971.58	24.0291
2972.42	28.4281
2973.26	27.9563
2974.1	23.1344
2974.94	24.1113
2975.78	27.8719
2976.62	27.4864
2977.46	22.3797
2978.3	20.8956
2979.14	28.0673
2979.98	23.1398
2980.82	27.0199
2981.66	23.7217
2982.5	26.7696
2983.34	23.898
2984.18	25.0082
2985.02	23.3429
2985.86	25.1793
2986.7	22.805
2987.54	22.546
2988.38	24.7734
2989.21	25.8738
2990.05	21.5841
2990.89	22.71
2991.73	23.5253
2992.57	24.3406
2993.41	22.219
2994.24	22.5773
2995.08	21.1612
2995.92	25.0352
2996.76	21.835
2997.59	22.0749
2998.43	25.9845
2999.27	19.6505
3000.1	22.0808
3000.94	22.0754
3001.78	22.61
3002.61	23.2225
3003.45	22.406
3004.29	21.8867
3005.12	20.1127
3005.96	21.3097
3006.8	24.4034
3007.63	23.406
3008.47	23.7803
3009.3	22.8792
3010.14	21.7357
3010.97	22.7694
3011.81	23.2937
3012.64	22.2403
3013.48	21.8541
3014.31	22.154
3015.15	21.9194
3015.98	21.4098
3016.82	23.4682
3017.65	23.266
3018.49	22.5485
3019.32	21.2675
3020.16	20.5196
3020.99	22.1681
3021.82	23.3329
3022.66	20.5247
3023.49	22.311
3024.32	22.8155
3025.16	22.8525
3025.99	23.7153
3026.82	22.4922
3027.66	20.5132
3028.49	21.9143
3029.32	21.8204
3030.16	21.4578
3030.99	20.3964
3031.82	22.5141
3032.65	22.4758
3033.49	21.9681
3034.32	20.3681
3035.15	21.3175
3035.98	22.2921
3036.81	22.0059
3037.64	20.7677
3038.48	22.0105
3039.31	23.0751
3040.14	21.1628
3040.97	19.427
3041.8	21.2184
3042.63	21.1197
3043.46	20.3804
3044.29	21.9277
3045.12	22.9069
3045.95	22.48
3046.78	22.9225
3047.61	21.8859
3048.44	22.3471
3049.27	22.6932
3050.1	23.7299
3050.93	23.518
3051.76	22.3206
3052.59	22.0967
3053.42	21.9222
3054.25	21.6917
3055.08	19.9361
3055.91	22.4868
3056.74	22.0688
3057.26	23
3058.09	24.5
3058.92	23.5
3059.76	20.5
3060.59	19
3061.42	25.5
3062.26	20
3063.09	22
3063.92	22.5
3064.75	18.5
3065.59	24.5
3066.42	24.5
3067.25	21
3068.08	20.5
3068.91	25.5
3069.74	24
3070.58	25.5
3071.41	20
3072.24	21
3073.07	22
3073.9	19.5
3074.73	24
3075.56	17
3076.39	22.5
3077.22	22.5
3078.05	25
3078.88	20
3079.71	22.5
3080.55	25
3081.38	20.5
3082.2	24
3083.03	24.5
3083.86	20
3084.69	23.5
3085.52	21
3086.35	19.5
3087.18	23.5
3088.01	25.5
3088.84	18.5
3089.67	24
3090.5	24.5
3091.33	25
3092.15	22
3092.98	20
3093.81	23
3094.64	25.5
3095.47	21
3096.29	24.5
3097.12	21
3097.95	24.5
3098.78	21.5
3099.6	22.5
3100.43	22
3101.26	24.5
3102.09	22
3102.91	23
3103.74	25
3104.57	20.5
3105.39	25
3106.22	23
3107.05	22.5
3107.87	24.5
3108.7	23
3109.52	22.5
3110.35	24.5
3111.18	21
3112	20
3112.83	23
3113.65	22
3114.48	19
3115.3	22
3116.13	22.5
3116.95	23
3117.78	22.5
3118.6	24.5
3119.43	24.5
3120.25	24
3121.08	24.5
3121.9	21.5
3122.73	20
3123.55	24.5
3124.37	24.5
3125.2	27
3126.02	22.5
3126.84	24
3127.67	23
3128.49	25
3129.31	22.5
3130.14	28
3130.96	19.5
3131.78	24
3132.61	21
3133.43	21
3134.25	20
3135.07	26
3135.9	20
3136.72	21
3137.54	20
3138.36	26
3139.18	25.5
3140.01	23.5
3140.83	23.5
3141.65	20.5
3142.47	25.5
3143.29	23
3144.11	19
3144.93	26
3145.75	24.5
3146.58	23.5
3147.4	23
3148.22	23.5
3149.04	25
3149.86	22.5
3150.68	22.5
3151.5	21
3152.32	20
3153.14	26
3153.96	23.5
3154.78	22.5
3155.6	21.5
3156.42	22
3157.23	26
3158.05	24.5
3158.87	23.5
3159.69	23.5
3160.51	21
3161.33	23
3162.15	24
3162.97	22.5
3163.79	23.5
3164.6	23
3165.42	19
3166.24	30
3167.06	23
3167.88	23.5
3168.69	25
3169.51	19
3170.33	21.5
3171.15	20
3171.96	22
3172.78	22
3173.6	19.5
3174.41	19
3175.23	24
3176.05	24
3176.86	20.5
3177.68	20.5
3178.5	26
3179.31	23
3180.13	25
3180.95	23.5
3181.76	17
3182.58	23
3183.39	19.5
3184.21	25
3185.02	21.5
3185.84	23.5
3186.65	22.5
3187.47	23
3188.28	25.5
3189.1	25
3189.91	25
3190.73	23
3191.54	25.5
3192.36	30.5
3193.17	23.5
3193.99	22.5
3194.8	23.5
3195.61	24
3196.43	25
3197.24	22.5
3198.05	24
3198.87	22
3199.68	28
3200.49	25.5
3201.31	23
3202.12	25.5
3202.93	22
3203.75	23.5
3204.56	23.5
3205.37	21
3206.18	23.5
3207	24.5
3207.81	20
3208.62	23.5
3209.43	25.5
3210.24	24
3211.06	21.5
3211.87	24
3212.68	27.5
3213.49	23.5
3214.3	23
3215.11	23
3215.92	26
3216.74	24
3217.55	20
3218.36	24
3219.17	29.5
3219.98	24.5
3220.79	23.5
3221.6	23
3222.41	25.5
3223.22	24
3224.03	21.5
3224.84	21.5
3225.65	25
3226.46	23
3227.27	22
3228.08	25
3228.89	22
3229.7	25
3230.5	27
3231.31	25.5
3232.12	24.5
3232.93	25
3233.74	27.5
3234.55	20.5
3235.36	22.5
3236.16	22.5
3236.97	21.5
3237.78	27.5
3238.59	25.5
3239.4	24
3240.2	23.5
3241.01	23.5
3241.82	23
3242.63	24
3243.43	25.5
3244.24	23.5
3245.05	21
3245.86	24
3246.66	22.5
3247.47	23
3248.28	23
3249.08	24.5
3249.89	25
3250.69	23.5
3251.5	20.5
3252.31	25.5
3253.11	24.5
3253.92	26.5
3254.72	22
3255.53	23
3256.34	19.5
3257.14	24.5
3257.95	23
3258.75	23.5
3259.56	25
3260.36	28.5
3261.17	23.5
3261.97	24.5
3262.77	22
3263.58	25
3264.38	24
3265.19	23
3265.99	22.5
3266.8	22
3267.6	23.5
3268.4	19
3269.21	17
3270.01	23
3270.81	22
3271.62	22.5
3272.42	26.5
3273.22	22.5
3274.03	22
3274.83	21
3275.63	23
3276.43	22.5
3277.24	28.5
3278.04	20
3278.84	23
3279.64	22
3280.45	24
3281.25	26
3282.05	24
3282.85	24
3283.65	23.5
3284.46	19.5
3285.26	27.5
3286.06	20
3286.86	23
3287.66	23
3288.46	22
3289.26	23.5
3290.06	22
3290.86	24
3291.66	23.5
3292.46	26
3293.26	24
3294.06	26
3294.86	25
3295.66	24
3296.46	23
3297.26	23.5
3298.06	21.5
3298.86	23
3299.66	27
3300.46	23
3301.26	24.5
3302.06	22
3302.86	25
3303.66	22.5
3304.46	27
3305.26	25
3306.05	24
3306.85	24.5
3307.65	23
3308.45	24.5
3309.25	27
3310.04	25
3310.84	25.5
3311.64	27
3312.44	23.5
3313.24	18
3314.03	23.5
3314.83	21
3315.63	18.5
3316.42	21.5
3317.22	23
3318.02	23
3318.82	20.5
3319.61	26
3320.41	22
3321.2	26.5
3322	27
3322.8	25
3323.59	22
3324.39	23.5
3325.19	24.5
3325.98	24
3326.78	22.5
3327.57	26
3328.37	22
3329.16	24.5
3329.96	21.5
3330.75	25.5
3331.55	21.5
3332.34	23
3333.14	23.5
3333.93	25
3334.73	24
3335.52	26
3336.32	23
3337.11	21
3337.9	25
3338.7	20
3339.49	24
3340.29	26
3341.08	27
3341.87	23.5
3342.67	23
3343.46	24
3344.25	26
3345.05	23
3345.84	26
3346.63	27
3347.42	23
3348.22	26.5
3349.01	24.5
3349.8	28
3350.59	23.5
3351.39	26
3352.18	25.5
3352.97	25
3353.76	22
3354.55	25
3355.35	25.5
3356.14	23.5
3356.93	25.5
3357.72	23
3358.51	20
3359.3	27.5
3360.09	28
3360.88	25.5
3361.67	23.5
3362.47	24
3363.26	21
3364.05	21
3364.84	24
3365.63	25
3366.42	25.5
3367.21	20
3368	24
3368.79	24.5
3369.58	24
3370.37	24
3371.16	24
3371.95	19.5
3372.73	28.5
3373.52	23.5
3374.31	21.5
3375.1	24
3375.89	24
3376.68	22.5
3377.47	22
3378.26	22.5
3379.04	27.5
3379.83	24.5
3380.62	26.5
3381.41	25.5
3382.2	23.5
3382.98	23.5
3383.77	25.5
3384.56	26
3385.35	22
3386.14	23.5
3386.92	26
3387.71	23.5
3388.5	21
3389.28	25.5
3390.07	24.5
3390.86	23
3391.64	24.5
3392.43	21.5
3393.22	23
3394	25.5
3394.79	24.5
3395.58	25
3396.36	23.5
3397.15	26.5
3397.93	21.5
3398.72	22.5
3399.5	22.5
3400.29	25
3401.07	19.5
3401.86	27.5
3402.65	23
3403.43	23
3404.22	24.5
3405	26
3405.79	25
3406.57	18
3407.35	25
3408.14	25
3408.92	20
3409.71	24
3410.49	22
3411.27	24.5
3412.06	18
3412.84	27
3413.63	23
3414.41	25.5
3415.19	25
3415.98	20.5
3416.76	24.5
3417.54	24
3418.32	24.5
3419.11	21.5
3419.89	24
3420.67	24.5
3421.46	24.5
3422.24	27.5
3423.02	25.5
3423.8	22
3424.58	26.5
3425.37	22.5
3426.15	22.5
3426.93	27
3427.71	24.5
3428.49	26.5
3429.27	22
3430.06	24
3430.84	22
3431.62	26.5
3432.4	24.5
3433.18	22.5
3433.96	26
3434.74	24
3435.52	25
3436.3	25
3437.08	21.5
3437.86	25
3438.64	22.5
3439.42	23.5
3440.2	22.5
3440.98	27.5
3441.76	23
3442.54	25
3443.32	25.5
3444.1	18.5
3444.88	24.5
3445.66	24
3446.44	28.5
3447.22	22
3448	25.5
3448.78	24
3449.55	25
3450.33	24
3451.11	24.5
3451.89	22
3452.67	26
3453.45	25
3454.22	22.5
3455	25
3455.78	20.5
3456.56	23
3457.33	22
3458.11	18.5
3458.89	20.5
3459.67	22
3460.44	22
3461.22	22.5
3462	24.5
3462.77	22
3463.55	21
3464.33	21.5
3465.1	22
3465.88	22.5
3466.66	26.5
3467.43	23
3468.21	22.5
3468.99	20.5
3469.76	24
3470.54	21.5
3471.31	24.5
3472.09	23
3472.86	28
3473.64	21
3474.41	23
3475.19	21
3475.96	27.5
3476.74	24
3477.51	22.5
3478.29	22.5
3479.06	21.5
3479.84	26
3480.61	23
3481.39	25
3482.16	25
3482.93	22.5
3483.71	22.5
3484.48	22.5
3485.26	27
3486.03	20.5
3486.8	29
3487.58	27
3488.35	25
3489.12	20.5
3489.9	23.5
3490.67	20.5
3491.44	24
3492.21	24
3492.99	23
3493.76	24
3494.53	24.5
3495.3	24.5
3496.08	23.5
3496.85	20.5
3497.62	23
3498.39	20
3499.16	26
3499.94	23
