#Acq. time (s)=	3
#Accumulations=	3
#Range (cm-¹)=	100...3000
#Windows=	3
#Autofocus=	Off
#AutoExposure=	Off
#Spike filter=	Multiple accum.
#Delay time (s)=	0
#Binning=	1
#Readout mode=	Signal
#DeNoise=	Off
#ICS correction=	Off
#Dark correction=	Off
#Inst. Process=	Off
#Instrument=	LabRAM HR Evol
#Detector=	Syncerity OE
#Objective=	x100_VIS_LWD
#Grating=	600 (500nm)
#ND Filter=	25%
#Laser=	633nm_Edge
#Hole=	100.021
#Range=	Visible
#Project=	Bolus
#Sample=	A4
#Site=	stripside
#Title=	m13
#Remark=	
#Date=	03.11.2025 17:33
#Acquired=	03.11.2025 17:33:47
100.969	32
102.252	36
103.535	36
104.818	32
106.101	36
107.384	33
108.666	34
109.948	34
111.232	36
112.514	30
113.795	37
115.077	34
116.358	32
117.639	34
118.919	32
120.2	31
121.48	31
122.76	35
124.04	30
125.32	36
126.599	34
127.879	32
129.158	32
130.436	32
131.715	37
132.992	37
134.27	36
135.548	40
136.826	32
138.104	36
139.381	36
140.658	40
141.935	36
143.212	39
144.489	38
145.763	37
147.04	38
148.315	38
149.591	39
150.867	34
152.142	41
153.416	38
154.691	42
155.965	38
157.24	39
158.514	40
159.786	43
161.06	38
162.334	40
163.607	40
164.881	36
166.152	45
167.425	37
168.698	42
169.969	36
171.241	43
172.513	35
173.785	42
175.055	38
176.326	38
177.597	41
178.867	50
180.137	42
181.408	42
182.677	38
183.947	41
185.217	39
186.485	51
187.755	40
189.022	42
190.291	42
191.56	41
192.828	39
194.096	46
195.363	39
196.631	41
197.899	39
199.165	46
200.432	42
201.698	44
202.965	34
204.23	36
205.497	38
206.762	40
208.028	43
209.293	40
210.559	37
211.823	38
213.088	38
214.352	37
215.617	40
216.88	36
218.145	38
219.408	31
220.672	37
221.934	33
223.196	34
224.46	33
225.722	37
226.985	34
228.246	29
229.508	35
230.77	33
232.031	34
233.292	34
234.554	27
235.814	32
237.074	29
238.335	34
239.595	31
240.854	36
242.115	32
243.374	41
244.633	32
245.893	39
247.151	34
248.409	33
249.667	32
250.927	32
252.184	34
253.442	30
254.699	35
255.957	32
257.214	32
258.47	28
259.727	31
260.983	30
262.24	29
263.496	34
264.752	39
266.007	35
267.262	36
268.517	32
269.773	30
271.028	35
272.282	32
273.536	30
274.79	35
276.044	33
277.297	36
278.551	26
279.804	28
281.057	38
282.31	33
283.564	35
284.816	33
286.068	30
287.32	32
288.572	30
289.823	30
291.074	31
292.325	34
293.576	31
294.827	34
296.077	33
297.328	30
298.578	27
299.828	33
301.077	26
302.325	30
303.575	35
304.824	30
306.073	32
307.321	32
308.57	31
309.818	28
311.066	33
312.314	32
313.562	30
314.808	22
316.055	32
317.302	36
318.549	34
319.796	31
321.042	31
322.288	38
323.533	32
324.779	34
326.024	32
327.27	28
328.515	34
329.759	32
331.004	30
332.248	30
333.493	28
334.736	32
335.98	36
337.223	32
338.466	32
339.709	32
340.952	34
342.195	33
343.437	30
344.68	28
345.922	30
347.163	28
348.405	30
349.647	35
350.887	29
352.128	34
353.37	32
354.609	37
355.85	30
357.089	35
358.33	32
359.57	30
360.809	28
362.049	31
363.287	30
364.526	30
365.764	32
367.003	35
368.241	35
369.479	33
370.718	26
371.955	33
373.193	26
374.429	32
375.667	36
376.903	35
378.139	30
379.376	36
380.611	30
381.848	30
383.083	30
384.319	28
385.554	34
386.79	29
388.024	33
389.258	28
390.493	35
391.727	34
392.962	29
394.195	31
395.428	33
396.663	35
397.895	35
399.128	26
400.361	30
401.593	35
402.825	32
404.058	32
405.29	36
406.521	26
407.752	27
408.985	32
410.215	30
411.446	29
412.678	28
413.908	33
415.138	33
416.367	26
417.597	34
418.828	33
420.057	27
421.286	32
422.514	29
423.743	30
424.973	28
426.201	28
427.429	31
428.657	30
429.884	28
431.112	30
432.34	33
433.567	35
434.794	29
436.02	30
437.247	31
438.473	26
439.699	35
440.925	28
442.15	34
443.376	34
444.601	31
445.826	32
447.051	34
448.275	24
449.5	30
450.724	34
451.948	32
453.172	33
454.396	35
455.619	32
456.842	37
458.065	34
459.288	30
460.511	31
461.733	34
462.956	32
464.178	35
465.4	36
466.621	36
467.843	38
469.064	34
470.285	35
471.505	36
472.726	40
473.946	41
475.166	40
476.387	38
477.606	46
478.825	42
480.044	40
481.264	40
482.483	53
483.702	49
484.921	48
486.138	56
487.356	50
488.574	58
489.792	60
491.009	55
492.226	62
493.444	57
494.661	46
495.877	50
497.094	51
498.31	40
499.525	47
500.741	47
501.958	40
503.172	42
504.388	42
505.603	41
506.817	40
508.032	41
509.247	34
510.46	38
511.675	33
512.888	40
514.102	39
515.316	37
516.528	38
517.742	32
518.954	37
520.167	35
521.378	36
522.591	34
523.802	37
525.015	37
526.226	33
527.438	34
528.648	36
529.86	32
531.07	30
532.281	32
533.491	28
534.702	30
535.911	34
537.121	36
538.33	28
539.54	33
540.749	32
541.957	36
543.167	33
544.375	35
545.584	30
546.791	37
547.999	34
549.207	33
550.414	30
551.621	34
552.829	36
554.035	36
555.241	34
556.449	30
557.655	28
558.86	32
560.066	34
561.272	32
562.477	31
563.682	30
564.888	32
566.093	30
567.297	30
568.501	35
569.705	28
570.91	35
572.114	34
573.317	32
574.52	31
575.723	32
576.927	27
578.13	35
579.332	33
580.535	34
581.737	32
582.938	38
584.14	32
585.343	31
586.544	30
587.745	34
588.946	31
590.147	34
591.347	30
592.548	35
593.748	28
594.948	38
596.147	35
597.347	33
598.546	30
599.745	29
600.944	36
602.143	30
603.342	30
604.54	34
605.738	31
606.937	33
608.134	34
609.332	28
610.529	34
611.727	34
612.924	30
614.121	35
615.317	37
616.513	31
617.709	30
618.905	31
620.101	35
621.297	32
622.492	35
623.688	32
624.883	32
626.077	30
627.271	32
628.466	36
629.66	32
630.855	30
632.047	28
633.241	32
634.435	32
635.629	38
636.82	30
638.014	31
639.207	33
640.399	32
641.59	34
642.783	28
643.975	30
645.166	36
646.357	31
647.549	33
648.741	29
649.93	32
651.122	33
652.311	34
653.502	26
654.692	36
655.881	34
657.071	34
658.261	37
659.45	30
660.639	36
661.827	37
663.016	30
664.204	30
665.393	37
666.581	33
667.769	38
668.957	31
670.143	32
671.331	30
672.518	32
673.705	34
674.891	32
676.078	35
677.264	43
678.451	37
679.636	30
680.821	34
682.007	40
683.192	35
684.378	39
685.562	41
686.747	34
687.931	39
689.115	34
690.3	35
691.483	32
692.666	33
693.851	42
695.034	34
696.216	37
697.4	40
698.582	42
699.764	39
700.948	41
702.129	38
703.311	44
704.493	41
705.674	52
706.855	48
708.036	48
709.218	50
710.399	51
711.579	46
712.759	48
713.939	48
715.12	38
716.299	43
717.478	37
718.657	32
719.836	30
721.015	34
722.195	30
723.373	34
724.552	36
725.729	36
726.907	34
728.085	30
729.262	36
730.44	30
731.617	30
732.795	34
733.972	29
735.148	33
736.324	36
737.501	36
738.677	33
739.852	30
741.028	28
742.203	37
743.379	30
744.554	30
745.729	36
746.903	34
748.078	32
749.252	30
750.426	32
751.599	34
752.772	38
753.946	28
755.119	34
756.293	33
757.466	36
758.639	35
759.811	28
760.984	32
762.155	30
763.327	33
764.499	30
765.67	32
766.842	22
768.013	33
769.183	32
770.354	32
771.525	32
772.696	36
773.865	35
775.035	32
776.205	36
777.375	36
778.544	35
779.713	32
780.882	32
782.052	34
783.219	32
784.388	41
785.557	35
786.724	39
787.892	39
789.06	35
790.227	33
791.395	32
792.562	34
793.728	32
794.895	32
796.061	29
797.228	37
798.395	32
799.56	32
800.726	35
801.891	32
803.057	33
804.221	30
805.387	34
806.551	30
807.716	35
808.879	30
810.044	33
811.208	35
812.372	26
813.535	32
814.699	32
815.862	34
817.025	32
818.188	29
819.351	29
820.513	24
821.675	28
822.837	36
823.999	31
825.161	30
826.322	30
827.483	30
828.645	28
829.805	31
830.966	30
832.127	30
833.287	33
834.447	33
835.607	32
836.767	32
837.926	30
839.085	27
840.245	30
841.404	35
842.562	36
843.72	30
844.88	36
846.038	32
847.195	28
848.353	34
849.512	32
850.669	36
851.826	29
852.983	36
854.139	40
855.296	28
856.453	34
857.609	34
858.765	33
859.921	32
861.077	36
862.232	34
863.387	37
864.542	32
865.697	30
866.852	32
868.008	35
869.162	33
870.316	36
871.47	30
872.624	34
873.778	32
874.931	35
876.084	33
877.237	35
878.39	29
879.543	31
880.695	35
881.846	32
882.999	34
884.151	29
885.302	34
886.454	32
887.606	32
888.757	35
889.908	32
891.059	30
892.21	26
893.359	29
894.509	30
895.659	30
896.81	29
897.959	30
899.109	32
900.257	30
901.407	32
902.556	30
903.705	31
904.854	28
906.001	26
907.149	27
908.298	28
909.446	30
910.592	33
911.74	36
912.888	35
914.034	28
915.181	26
916.328	30
917.473	32
918.62	29
919.766	32
920.911	34
922.058	34
923.204	31
924.348	31
925.494	32
926.638	32
927.783	29
928.928	31
930.072	36
931.216	34
932.36	30
933.504	30
934.647	33
935.791	28
936.933	30
938.077	28
939.219	30
940.363	29
941.504	28
942.647	24
943.789	33
944.932	33
946.073	31
947.215	27
948.356	29
949.498	27
950.638	32
951.778	33
952.92	28
954.06	28
955.199	30
956.34	29
957.479	28
958.62	29
959.759	32
960.898	28
962.038	27
963.176	33
964.315	25
965.453	29
966.592	26
967.73	34
968.867	26
970.006	31
971.144	31
972.281	31
973.418	29
974.554	26
975.692	29
976.829	32
977.965	22
979.101	36
980.237	26
981.374	34
982.509	33
983.645	30
984.78	32
985.915	31
987.05	30
988.184	28
989.319	30
990.453	34
991.589	30
992.722	34
993.856	30
994.99	32
996.123	29
997.257	27
998.39	29
999.523	32
1000.66	32
1001.79	30
1002.92	34
1004.05	32
1005.18	30
1006.32	32
1007.45	32
1008.58	30
1009.71	27
1010.84	32
1011.97	31
1013.1	30
1014.23	28
1015.36	31
1016.49	26
1017.62	28
1018.75	32
1019.88	36
1021.01	30
1022.14	28
1023.27	28
1024.4	29
1025.53	34
1026.66	30
1027.79	33
1028.91	37
1030.04	28
1031.17	34
1032.3	27
1033.42	25
1034.55	35
1035.68	29
1036.81	31
1037.93	30
1039.06	32
1040.18	24
1041.31	35
1042.44	31
1043.56	29
1044.69	26
1045.81	33
1046.94	27
1048.06	32
1049.19	31
1050.31	26
1051.44	28
1052.56	32
1053.69	30
1054.81	27
1055.93	33
1057.06	26
1058.18	31
1059.3	29
1060.43	30
1061.55	26
1062.67	33
1063.79	31
1064.92	26
1066.04	28
1067.16	30
1068.28	31
1069.4	26
1070.52	30
1071.65	24
1072.77	32
1073.89	34
1075.01	28
1076.13	29
1077.25	31
1078.37	35
1079.49	26
1080.61	31
1081.73	28
1082.85	30
1083.97	29
1085.09	34
1086.2	32
1087.32	30
1088.44	28
1089.56	26
1090.68	37
1091.8	30
1092.91	31
1094.03	34
1095.15	29
1096.26	27
1097.38	32
1098.5	29
1099.61	32
1100.73	26
1101.85	31
1102.96	26
1104.08	32
1105.19	26
1106.31	28
1107.43	28
1108.54	34
1109.66	29
1110.77	31
1111.88	31
1113	32
1114.11	32
1115.23	32
1116.34	30
1117.46	28
1118.57	29
1119.68	22
1120.8	35
1121.91	24
1123.02	33
1124.13	22
1125.25	30
1126.36	29
1127.47	32
1128.58	27
1129.69	28
1130.8	29
1131.92	30
1133.03	28
1134.14	28
1135.25	29
1136.36	29
1137.47	26
1138.58	26
1139.69	35
1140.8	29
1141.91	30
1143.02	33
1144.13	24
1145.24	29
1146.35	30
1147.46	32
1148.56	33
1149.67	27
1150.78	31
1151.89	34
1153	24
1154.1	22
1155.21	30
1156.32	26
1157.43	28
1158.53	26
1159.64	30
1160.75	28
1161.85	34
1162.96	36
1164.07	36
1165.17	27
1166.28	29
1167.38	26
1168.49	30
1169.59	29
1170.7	27
1171.8	32
1172.91	28
1174.01	26
1175.12	29
1176.22	27
1177.32	31
1178.43	28
1179.53	32
1180.64	28
1181.74	30
1182.84	28
1183.94	28
1185.05	26
1186.15	32
1187.25	30
1188.35	24
1189.46	29
1190.56	26
1191.66	30
1192.76	29
1193.86	28
1194.96	26
1196.06	28
1197.16	30.9559
1198.26	32.946
1199.37	31.0115
1200.47	29.9272
1201.57	25.9069
1202.67	24.9123
1203.77	29.6718
1204.86	29.4453
1205.96	25.8779
1207.06	29.6867
1208.16	26.829
1209.26	29.5754
1210.36	25.8616
1211.46	27.862
1212.56	26.3061
1213.65	29.9474
1214.75	32.7905
1215.85	28.0936
1216.95	32.1358
1218.04	29.7037
1219.14	30.2688
1220.24	25.7087
1221.33	27.2526
1222.43	26.1528
1223.53	24.0247
1224.62	29.6156
1225.72	24.873
1226.82	29.6888
1227.91	30.3817
1229.01	28.2155
1230.1	29.4642
1231.2	30.4339
1232.29	29.4491
1233.39	28.1227
1234.48	25.1839
1235.58	26.4316
1236.67	28.1299
1237.77	29.8773
1238.86	28.1347
1239.95	25.7408
1241.05	30.0489
1242.14	30.6536
1243.23	28.2635
1244.33	26
1245.42	27.4231
1246.51	28.4525
1247.61	25.7093
1248.7	29.0067
1249.79	29.3529
1250.88	26.1487
1251.97	27.8748
1253.07	26.7551
1254.16	29.3478
1255.25	30.2315
1256.34	29.0773
1257.43	30.5119
1258.52	26.3235
1259.61	29.3733
1260.7	28.0819
1261.79	28.9576
1262.88	32.6059
1263.97	28.332
1265.06	29.6686
1266.15	29.3937
1267.24	29.9121
1268.33	26.6489
1269.42	26.3428
1270.51	30.1245
1271.6	29.6404
1272.68	26.3088
1273.77	29.0263
1274.86	29.3704
1275.95	27.3971
1277.04	26.5793
1278.12	28.7794
1279.21	28.25
1280.3	28.8427
1281.39	25.3824
1282.47	24.4412
1283.56	26.4281
1284.65	32.7246
1285.73	27.0951
1286.82	27.5921
1287.91	29.596
1288.99	28.1426
1290.08	30.3091
1291.16	26.3948
1292.25	28.0174
1293.33	26.6102
1294.42	27.1074
1295.5	26.4118
1296.59	26.4657
1297.67	26.6326
1298.76	27.6324
1299.84	28.5196
1300.92	29.8922
1302.01	29.5821
1303.09	26.4037
1304.17	28.6679
1305.26	26.1107
1306.34	27.0147
1307.34	27
1308.43	26
1309.52	27
1310.61	26
1311.7	27
1312.78	29
1313.87	22
1314.96	28
1316.04	30
1317.13	26
1318.22	26
1319.3	30
1320.39	26
1321.48	27
1322.56	26
1323.65	26
1324.73	28
1325.82	26
1326.9	27
1327.99	27
1329.07	33
1330.16	28
1331.24	26
1332.33	28
1333.41	29
1334.5	31
1335.58	27
1336.66	24
1337.75	29
1338.83	30
1339.91	31
1341	31
1342.08	24
1343.16	28
1344.24	33
1345.33	26
1346.41	25
1347.49	22
1348.57	26
1349.65	26
1350.74	24
1351.82	27
1352.9	27
1353.98	28
1355.06	27
1356.14	31
1357.22	23
1358.3	30
1359.38	30
1360.46	24
1361.54	24
1362.62	34
1363.7	24
1364.78	29
1365.86	29
1366.94	27
1368.02	26
1369.09	27
1370.17	29
1371.25	28
1372.33	24
1373.41	30
1374.48	30
1375.56	29
1376.64	26
1377.72	28
1378.79	26
1379.87	30
1380.95	24
1382.02	22
1383.1	26
1384.17	36
1385.25	22
1386.33	27
1387.4	29
1388.48	26
1389.55	31
1390.63	20
1391.7	30
1392.78	28
1393.85	34
1394.93	26
1396	26
1397.07	32
1398.15	30
1399.22	32
1400.3	30
1401.37	28
1402.44	34
1403.52	28
1404.59	33
1405.66	27
1406.73	28
1407.81	30
1408.88	30
1409.95	28
1411.02	30
1412.09	33
1413.17	35
1414.24	35
1415.31	36
1416.38	33
1417.45	31
1418.52	30
1419.59	31
1420.66	36
1421.73	30
1422.8	36
1423.87	28
1424.94	30
1426.01	26
1427.08	31
1428.15	29
1429.22	34
1430.29	28
1431.35	30
1432.42	29
1433.49	33
1434.56	28
1435.63	30
1436.69	28
1437.76	30
1438.83	28
1439.9	28
1440.96	24
1442.03	30
1443.1	28
1444.17	26
1445.23	30
1446.3	30
1447.36	28
1448.43	28
1449.49	30
1450.56	35
1451.63	31
1452.69	22
1453.76	34
1454.82	26
1455.89	32
1456.95	28
1458.01	28
1459.08	25
1460.14	30
1461.21	26
1462.27	26
1463.34	31
1464.4	28
1465.46	31
1466.52	31
1467.59	22
1468.65	24
1469.71	28
1470.77	24
1471.84	25
1472.9	28
1473.96	28
1475.02	28
1476.08	31
1477.15	28
1478.21	34
1479.27	28
1480.33	27
1481.39	24
1482.45	33
1483.51	29
1484.57	28
1485.63	31
1486.69	26
1487.75	27
1488.81	29
1489.87	30
1490.93	30
1491.99	33
1493.05	26
1494.1	32
1495.16	24
1496.22	30
1497.28	29
1498.34	30
1499.4	28
1500.45	32
1501.51	28
1502.57	32
1503.63	25
1504.68	29
1505.74	28
1506.8	30
1507.85	24
1508.91	28
1509.97	22
1511.02	28
1512.08	33
1513.13	24
1514.19	26
1515.24	28
1516.3	29
1517.35	28
1518.41	26
1519.46	32
1520.52	28
1521.57	30
1522.63	22
1523.68	24
1524.73	29
1525.79	30
1526.84	29
1527.9	30
1528.95	28
1530	32
1531.05	29
1532.11	28
1533.16	36
1534.21	30
1535.26	32
1536.32	26
1537.37	28
1538.42	31
1539.47	24
1540.52	28
1541.57	28
1542.63	30
1543.68	30
1544.73	22
1545.78	30
1546.83	29
1547.88	30
1548.93	24
1549.98	29
1551.03	28
1552.08	24
1553.13	34
1554.18	26
1555.23	30
1556.27	26
1557.32	33
1558.37	33
1559.42	30
1560.47	30
1561.52	27
1562.56	30
1563.61	27
1564.66	25
1565.71	27
1566.75	32
1567.8	31
1568.85	28
1569.9	29
1570.94	29
1571.99	33
1573.03	29
1574.08	33
1575.13	21
1576.17	25
1577.22	32
1578.26	28
1579.31	28
1580.35	26
1581.4	31
1582.44	33
1583.49	30
1584.53	22
1585.58	24
1586.62	27
1587.66	27
1588.71	29
1589.75	24
1590.8	29
1591.84	28
1592.88	28
1593.92	28
1594.97	31
1596.01	29
1597.05	31
1598.1	26
1599.14	35
1600.18	28
1601.22	30
1602.26	32
1603.3	26
1604.35	30
1605.39	24
1606.43	30
1607.47	26
1608.51	30
1609.55	28
1610.59	25
1611.63	27
1612.67	30
1613.71	30
1614.75	25
1615.79	27
1616.83	28
1617.87	33
1618.91	27
1619.95	28
1620.99	24
1622.02	26
1623.06	29
1624.1	34
1625.14	33
1626.18	27
1627.21	31
1628.25	27
1629.29	30
1630.33	32
1631.36	28
1632.4	26
1633.44	30
1634.48	28
1635.51	28
1636.55	23
1637.58	34
1638.62	28
1639.66	29
1640.69	28
1641.73	32
1642.76	30
1643.8	27
1644.83	23
1645.87	29
1646.9	27
1647.94	30
1648.97	31
1650	32
1651.04	31
1652.07	28
1653.11	27
1654.14	24
1655.17	30
1656.21	31
1657.24	20
1658.27	31
1659.31	27
1660.34	30
1661.37	24
1662.4	27
1663.43	26
1664.47	24
1665.5	32
1666.53	26
1667.56	29
1668.59	29
1669.62	24
1670.66	31
1671.69	25
1672.72	28
1673.75	32
1674.78	31
1675.81	27
1676.84	24
1677.87	34
1678.9	30
1679.93	28
1680.96	28
1681.98	30
1683.01	28
1684.04	27
1685.07	24
1686.1	27
1687.13	24
1688.16	27
1689.18	32
1690.21	32
1691.24	25
1692.27	27
1693.3	28
1694.32	32
1695.35	31
1696.38	30
1697.4	28
1698.43	28
1699.46	28
1700.48	27
1701.51	29
1702.54	24
1703.56	27
1704.59	30
1705.61	30
1706.64	32
1707.66	28
1708.69	26
1709.71	26
1710.74	27
1711.76	29
1712.79	25
1713.81	25
1714.83	34
1715.86	26
1716.88	30
1717.91	24
1718.93	30
1719.95	26
1720.98	28
1722	26
1723.02	30
1724.04	29
1725.07	24
1726.09	30
1727.11	28
1728.13	27
1729.15	34
1730.18	26
1731.2	28
1732.22	30
1733.24	30
1734.26	20
1735.28	28
1736.3	31
1737.32	28
1738.34	27
1739.36	28
1740.38	28
1741.4	34
1742.42	27
1743.44	31
1744.46	24
1745.48	26
1746.5	29
1747.52	33
1748.54	29
1749.56	26
1750.58	28
1751.6	30
1752.61	30
1753.63	30
1754.65	29
1755.67	26
1756.68	28
1757.7	30
1758.72	29
1759.74	28
1760.75	26
1761.77	29
1762.79	29
1763.8	27
1764.82	30
1765.83	30
1766.85	30
1767.87	31
1768.88	25
1769.9	31
1770.91	29
1771.93	29
1772.94	25
1773.96	26
1774.97	29
1775.99	25
1777	30
1778.02	27
1779.03	24
1780.04	30
1781.06	30
1782.07	27
1783.09	29
1784.1	29
1785.11	26
1786.13	30
1787.14	30
1788.15	23
1789.16	28
1790.18	26
1791.19	32
1792.2	28
1793.21	30
1794.22	33
1795.23	30
1796.25	24
1797.26	28
1798.27	26
1799.28	25
1800.29	26
1801.3	31
1802.31	24
1803.32	32
1804.33	30
1805.34	28
1806.35	23
1807.36	32
1808.37	26
1809.38	24
1810.39	29
1811.4	25
1812.41	28
1813.42	35
1814.42	25
1815.43	30
1816.44	30
1817.45	24
1818.46	28
1819.47	29
1820.47	30
1821.48	28
1822.49	35
1823.49	28
1824.5	26
1825.51	26
1826.52	27
1827.52	30
1828.53	28
1829.53	28
1830.54	28
1831.55	26
1832.55	29
1833.56	27
1834.56	28
1835.57	28
1836.57	32
1837.58	25
1838.58	28
1839.59	28
1840.59	35
1841.6	33
1842.6	30
1843.61	27
1844.61	28
1845.61	29
1846.62	29
1847.62	24
1848.62	28
1849.63	30
1850.63	30
1851.63	28
1852.64	27
1853.64	27
1854.64	26
1855.64	28
1856.64	32
1857.65	26
1858.65	28
1859.65	31
1860.65	33
1861.65	28
1862.65	24
1863.65	31
1864.66	30
1865.66	28
1866.66	34
1867.66	33
1868.66	28
1869.66	30
1870.66	28
1871.66	26
1872.66	29
1873.66	33
1874.66	30
1875.65	28
1876.65	24
1877.65	29
1878.65	26
1879.65	26
1880.65	30
1881.65	25
1882.64	29
1883.64	26
1884.64	30
1885.64	27
1886.63	24
1887.63	31
1888.63	28
1889.63	23
1890.62	23
1891.62	27
1892.62	28
1893.61	24
1894.61	26
1895.6	28
1896.6	24
1897.6	24
1898.59	28
1899.59	26
1900.58	24
1901.58	24
1902.57	26
1903.57	26
1904.56	29
1905.56	28
1906.55	26
1907.54	29
1908.54	28
1909.53	29
1910.53	31
1911.52	32
1912.51	25
1913.51	30
1914.5	22
1915.49	29
1916.49	26
1917.48	22
1918.47	24
1919.46	26
1920.46	31
1921.45	26
1922.44	22
1923.43	28
1924.42	26
1925.41	30
1926.41	32
1927.4	30
1928.39	22
1929.38	22
1930.37	27
1931.36	31
1932.35	26
1933.34	33
1934.33	26
1935.32	29
1936.31	26
1937.3	28
1938.29	25
1939.28	28
1940.27	26
1941.26	30
1942.24	25
1943.23	26
1944.22	27
1945.21	30
1946.2	22
1947.19	26
1948.17	24
1949.16	30
1950.15	27
1951.14	23
1952.12	29
1953.11	27
1954.1	27
1955.09	25
1956.07	25
1957.06	27
1958.05	29
1959.03	25
1960.02	24
1961	26
1961.99	26
1962.98	24
1963.96	28
1964.95	30
1965.93	28
1966.92	32
1967.9	29
1968.89	29
1969.87	26
1970.85	28
1971.84	24
1972.82	29
1973.81	24
1974.79	28
1975.78	30
1976.76	26
1977.74	28
1978.73	29
1979.71	29
1980.69	26
1981.67	28
1982.66	26
1983.64	25
1984.62	28
1985.6	26
1986.59	27
1987.57	23
1988.55	30
1989.53	28
1990.51	24
1991.49	27
1992.47	28
1993.45	20
1994.44	24
1995.42	26
1996.4	30
1997.38	28
1998.36	22
1999.34	32
2000.32	23
2001.3	24
2002.28	20
2003.26	25
2004.24	26
2005.22	21
2006.19	25
2007.17	28
2008.15	28
2009.13	26
2010.11	22
2011.09	24
2012.06	26
2013.04	21
2014.02	27
2015	30
2015.98	26
2016.95	24
2017.93	25
2018.91	24
2019.88	24
2020.86	22
2021.84	29
2022.81	27
2023.79	28
2024.77	27
2025.74	29
2026.72	30
2027.69	24
2028.67	27
2029.65	28
2030.62	26
2031.6	27
2032.57	26
2033.55	29
2034.52	24
2035.5	27
2036.47	27
2037.44	30
2038.42	24
2039.39	24
2040.36	25
2041.34	24
2042.31	25
2043.29	26
2044.26	26
2045.23	24
2046.2	23
2047.18	22
2048.15	28
2049.12	23
2050.09	26
2051.07	26
2052.04	25
2053.01	27
2053.98	26
2054.95	25
2055.93	25
2056.9	24
2057.87	20
2058.84	29
2059.81	30
2060.78	24
2061.75	27
2062.72	29
2063.69	26
2064.66	25
2065.63	27
2066.6	30
2067.57	26
2068.54	28
2069.51	26
2070.48	27
2071.45	27
2072.42	30
2073.38	22
2074.35	24
2075.32	30
2076.29	30
2077.26	24
2078.23	25
2079.19	22
2080.16	27
2081.13	28
2082.1	30
2083.06	29
2084.03	24
2085	28
2085.96	27
2086.93	24
2087.9	26
2088.86	24
2089.83	27
2090.8	28
2091.76	21
2092.73	24
2093.69	31
2094.66	28
2095.62	25
2096.59	26
2097.55	23
2098.52	22
2099.48	22
2100.45	28
2101.41	28
2102.38	25
2103.34	24
2104.31	29
2105.27	28
2106.23	30
2107.2	22
2108.16	29
2109.12	27
2110.09	29
2111.05	26
2112.01	32
2112.98	25
2113.94	26
2114.9	28
2115.86	22
2116.82	27
2117.79	26
2118.75	30
2119.71	27
2120.67	25
2121.63	33
2122.59	28
2123.55	26
2124.52	26
2125.48	26
2126.44	22
2127.4	22
2128.36	29
2129.32	24
2130.28	22
2131.24	25
2132.2	24
2133.16	31
2134.12	20
2135.08	18
2136.04	24
2136.99	20
2137.95	25
2138.91	27
2139.87	22
2140.83	30
2141.79	26
2142.75	26
2143.7	30
2144.66	24
2145.62	24.9927
2146.58	23.9332
2147.53	28.8816
2148.49	23.1141
2149.45	18.5226
2150.41	23.2581
2151.36	24.0679
2152.32	26.9265
2153.27	22.3333
2154.23	31.446
2155.19	27.8923
2156.14	25.1174
2157.1	21.7128
2158.06	22.0285
2159.01	26.4154
2159.97	26
2160.92	20.9756
2161.88	30.4871
2162.83	29.8186
2163.79	24.9559
2164.74	24.8027
2165.7	26.5685
2166.65	23.1333
2167.61	27.7372
2168.56	23.5495
2169.51	24.7352
2170.47	25.7313
2171.42	25.2588
2172.38	28.6155
2173.33	24.8863
2174.28	27.7551
2175.24	22.8578
2176.19	27.1527
2177.14	26.1064
2178.09	22.6765
2179.05	26.9061
2180	26.7324
2180.95	26.6324
2181.9	26
2182.86	24.6907
2183.81	25.2059
2184.76	23.9
2185.71	26.2017
2186.66	24.9559
2187.61	25.4363
2188.57	30.1534
2189.52	23.7399
2190.47	22.598
2191.42	25.2662
2192.37	26.2058
2193.32	26.5245
2194.27	24
2195.22	27.9723
2196.17	24.0316
2197.12	24.8027
2198.07	24.2794
2199.02	23.7843
2199.97	25.9639
2200.92	22.2941
2201.87	24.7361
2202.82	24.2225
2203.76	22.2206
2204.71	25.2959
2205.66	24.7549
2206.61	27.5426
2207.56	28.1505
2208.51	24.4217
2209.45	25.1484
2210.4	24.3151
2211.35	24.2304
2212.3	26.202
2213.24	27.8868
2214.19	26.0944
2215.14	26.7274
2216.09	26.8823
2217.03	24.9608
2217.98	24.1849
2218.93	26.3256
2219.87	26.6921
2220.82	24.4778
2221.77	24.4216
2222.71	23.3089
2223.66	22.5735
2224.6	25.4746
2225.55	28.0402
2226.49	26.1836
2227.44	26.4861
2228.38	27.7298
2229.33	28
2230.27	25.4024
2231.22	24.4192
2232.16	25.2346
2233.11	25.2453
2234.05	25.7362
2235	23.8665
2235.94	24.9895
2236.88	23.972
2237.83	22.75
2238.77	26.0091
2239.71	25.0274
2240.66	25.2894
2241.6	25.2655
2242	24
2242.95	28
2243.9	27
2244.84	24
2245.79	28
2246.74	24
2247.69	26
2248.63	28
2249.58	23
2250.53	29
2251.47	31
2252.42	24
2253.37	25
2254.31	28
2255.26	26
2256.2	26
2257.15	25
2258.1	18
2259.04	30
2259.99	22
2260.93	27
2261.88	27
2262.82	25
2263.77	24
2264.71	24
2265.65	27
2266.6	26
2267.54	31
2268.49	25
2269.43	28
2270.38	22
2271.32	30
2272.26	24
2273.21	21
2274.15	26
2275.09	25
2276.04	27
2276.98	21
2277.92	24
2278.86	24
2279.81	26
2280.75	18
2281.69	22
2282.63	27
2283.57	25
2284.52	26
2285.46	29
2286.4	26
2287.34	27
2288.28	22
2289.22	28
2290.16	27
2291.1	30
2292.04	24
2292.98	26
2293.93	28
2294.86	25
2295.8	26
2296.74	28
2297.69	27
2298.62	24
2299.56	23
2300.5	24
2301.44	30
2302.38	26
2303.32	26
2304.26	27
2305.2	27
2306.14	16
2307.07	30
2308.01	23
2308.95	23
2309.89	22
2310.83	23
2311.76	28
2312.7	26
2313.64	25
2314.58	24
2315.51	26
2316.45	27
2317.39	24
2318.32	25
2319.26	27
2320.2	25
2321.13	25
2322.07	25
2323	26
2323.94	26
2324.88	29
2325.81	24
2326.75	25
2327.68	24
2328.62	28
2329.55	20
2330.49	30
2331.42	21
2332.36	30
2333.29	26
2334.22	28
2335.16	29
2336.09	26
2337.03	26
2337.96	24
2338.89	18
2339.83	22
2340.76	24
2341.69	26
2342.63	24
2343.56	26
2344.49	23
2345.43	24
2346.36	26
2347.29	27
2348.22	32
2349.15	24
2350.09	26
2351.02	20
2351.95	25
2352.88	24
2353.81	20
2354.74	23
2355.67	31
2356.61	27
2357.54	30
2358.47	27
2359.4	25
2360.33	26
2361.26	26
2362.19	27
2363.12	26
2364.05	30
2364.98	27
2365.91	30
2366.84	28
2367.77	22
2368.7	27
2369.62	24
2370.55	24
2371.48	27
2372.41	30
2373.34	30
2374.27	28
2375.2	29
2376.12	28
2377.05	28
2377.98	27
2378.91	25
2379.83	25
2380.76	26
2381.69	25
2382.62	24
2383.54	28
2384.47	26
2385.4	28
2386.32	25
2387.25	26
2388.18	22
2389.1	26
2390.03	26
2390.95	23
2391.88	29
2392.81	22
2393.73	26
2394.66	24
2395.58	22
2396.51	33
2397.43	29
2398.36	20
2399.28	26
2400.2	27
2401.13	30
2402.05	24
2402.98	27
2403.9	26
2404.83	25
2405.75	28
2406.67	29
2407.6	27
2408.52	31
2409.44	25
2410.37	20
2411.29	29
2412.21	26
2413.13	26
2414.06	32
2414.98	30
2415.9	29
2416.82	22
2417.74	32
2418.67	21
2419.59	25
2420.51	25
2421.43	25
2422.35	28
2423.27	26
2424.19	28
2425.11	20
2426.03	25
2426.96	33
2427.88	25
2428.8	22
2429.72	31
2430.64	28
2431.56	26
2432.48	26
2433.39	22
2434.31	27
2435.23	22
2436.15	27
2437.07	28
2437.99	26
2438.91	34
2439.83	27
2440.75	29
2441.67	29
2442.58	30
2443.5	29
2444.42	27
2445.34	26
2446.26	28
2447.17	28
2448.09	26
2449.01	30
2449.92	27
2450.84	27
2451.76	31
2452.68	24
2453.59	30
2454.51	22
2455.42	28
2456.34	24
2457.26	30
2458.17	27
2459.09	33
2460	26
2460.92	26
2461.83	26
2462.75	27
2463.66	26
2464.58	27
2465.49	20
2466.41	24
2467.32	25
2468.24	29
2469.15	29
2470.07	27
2470.98	28
2471.89	26
2472.81	28
2473.72	22
2474.64	24
2475.55	26
2476.46	28
2477.37	24
2478.29	30
2479.2	28
2480.11	28
2481.03	26
2481.94	34
2482.85	24
2483.76	26
2484.67	25
2485.59	30
2486.5	29
2487.41	29
2488.32	28
2489.23	27
2490.14	30
2491.05	25
2491.97	30
2492.88	28
2493.79	30
2494.7	27
2495.61	27
2496.52	30
2497.43	29
2498.34	28
2499.25	26
2500.16	27
2501.07	22
2501.98	30
2502.89	28
2503.79	30
2504.7	28
2505.61	32
2506.52	25
2507.43	28
2508.34	25
2509.25	26
2510.16	29
2511.06	30
2511.97	26
2512.88	25
2513.79	22
2514.69	29
2515.6	30
2516.51	30
2517.42	25
2518.32	28
2519.23	28
2520.14	31
2521.04	27
2521.95	32
2522.86	24
2523.76	23
2524.67	33
2525.57	26
2526.48	22
2527.39	29
2528.29	29
2529.2	29
2530.1	28
2531.01	26
2531.91	29
2532.82	31
2533.72	27
2534.63	27
2535.53	33
2536.44	26
2537.34	26
2538.24	27
2539.15	24
2540.05	25
2540.96	26
2541.86	26
2542.76	28
2543.67	30
2544.57	27
2545.47	25
2546.37	24
2547.28	26
2548.18	30
2549.08	29
2549.99	28
2550.89	24
2551.79	24
2552.69	25
2553.59	27
2554.49	30
2555.4	26
2556.3	28
2557.2	31
2558.1	28
2559	27
2559.9	20
2560.8	25
2561.7	31
2562.6	27
2563.5	31
2564.4	28
2565.3	28
2566.2	22
2567.1	26
2568	24
2568.9	24
2569.8	24
2570.7	31
2571.6	30
2572.5	28
2573.4	24
2574.3	28
2575.2	26
2576.1	24
2576.99	22
2577.89	29
2578.79	26
2579.69	26
2580.59	29
2581.48	28
2582.38	28
2583.28	27
2584.18	26
2585.07	30
2585.97	27
2586.87	28
2587.76	28
2588.66	29
2589.56	29
2590.45	27
2591.35	20
2592.25	26
2593.14	24
2594.04	26
2594.93	27
2595.83	30
2596.73	30
2597.62	28
2598.52	25
2599.41	30
2600.31	28
2601.2	33
2602.1	26
2602.99	27
2603.88	30
2604.78	28
2605.67	27
2606.57	26
2607.46	30
2608.35	28
2609.25	28
2610.14	30
2611.03	20
2611.93	26
2612.82	26
2613.71	28
2614.61	29
2615.5	27
2616.39	22
2617.29	30
2618.18	25
2619.07	26
2619.96	26
2620.85	22
2621.75	27
2622.64	24
2623.53	27
2624.42	27
2625.31	22
2626.2	30
2627.09	26
2627.98	29
2628.88	32
2629.77	28
2630.66	26
2631.55	30
2632.44	27
2633.33	31
2634.22	24
2635.11	30
2636	25
2636.89	26
2637.78	25
2638.66	25
2639.55	29
2640.44	31
2641.33	28
2642.22	32
2643.11	26
2644	27
2644.89	22
2645.78	26
2646.66	31
2647.55	28
2648.44	32
2649.33	27
2650.21	32
2651.1	27
2651.99	27
2652.88	30
2653.76	28
2654.65	28
2655.54	30
2656.42	25
2657.31	24
2658.2	27
2659.08	28
2659.97	32
2660.86	30
2661.74	24
2662.63	29
2663.51	20
2664.4	31
2665.29	28
2666.17	26
2667.06	28
2667.94	28
2668.83	29
2669.71	22
2670.6	31
2671.48	29
2672.36	25
2673.25	25
2674.13	28
2675.02	26
2675.9	23
2676.78	27
2677.67	24
2678.55	26
2679.43	26
2680.32	22
2681.2	28
2682.08	28
2682.97	26
2683.85	24
2684.73	27
2685.61	28
2686.5	28
2687.38	24
2688.26	30
2689.14	28
2690.03	28
2690.91	24
2691.79	26
2692.67	28
2693.55	27
2694.43	31
2695.31	28
2696.19	28
2697.08	26
2697.96	30
2698.84	25
2699.72	26
2700.6	30
2701.48	27
2702.36	26
2703.24	24
2704.12	26
2705	27
2705.88	25
2706.76	28
2707.64	26
2708.51	26
2709.39	27
2710.27	28
2711.15	26
2712.03	26
2712.91	25
2713.79	25
2714.67	28
2715.54	26
2716.42	22
2717.3	31
2718.18	26
2719.05	28
2719.93	27
2720.81	21
2721.69	29
2722.56	23
2723.44	24
2724.32	32
2725.19	26
2726.07	28
2726.95	28
2727.82	26
2728.7	33
2729.58	25
2730.45	25
2731.33	28
2732.2	31
2733.08	27
2733.95	36
2734.83	26
2735.7	32
2736.58	24
2737.45	33
2738.33	24
2739.2	27
2740.08	28
2740.95	27
2741.83	24
2742.7	22
2743.58	28
2744.45	29
2745.32	28
2746.2	25
2747.07	28
2747.94	24
2748.82	28
2749.69	29
2750.56	23
2751.44	23
2752.31	32
2753.18	26
2754.05	22
2754.93	21
2755.8	32
2756.67	28
2757.54	29
2758.42	26
2759.29	26
2760.16	24
2761.03	27
2761.9	23
2762.77	25
2763.64	26
2764.51	29
2765.38	31
2766.26	28
2767.13	27
2768	28
2768.87	33
2769.74	25
2770.61	27
2771.48	29
2772.35	28
2773.22	20
2774.09	33
2774.96	24
2775.83	34
2776.7	30
2777.56	26
2778.43	28
2779.3	21
2780.17	25
2781.04	28
2781.91	22
2782.78	31
2783.64	30
2784.51	20
2785.38	33
2786.25	28
2787.12	30
2787.98	26
2788.85	24
2789.72	27
2790.59	22
2791.45	28
2792.32	31
2793.19	26
2794.05	28
2794.92	30
2795.79	30
2796.65	27
2797.52	26
2798.38	32
2799.25	22
2800.12	25
2800.98	31
2801.85	31
2802.71	31
2803.58	31
2804.44	30
2805.31	27
2806.17	28
2807.04	28
2807.9	33
2808.77	28
2809.63	28
2810.5	22
2811.36	29
2812.22	32
2813.09	28
2813.95	27
2814.82	28
2815.68	27
2816.54	29
2817.41	30
2818.27	27
2819.13	33
2820	28
2820.86	32
2821.72	34
2822.58	29
2823.45	29
2824.31	24
2825.17	34
2826.03	29
2826.9	25
2827.76	24
2828.62	30
2829.48	27
2830.34	26
2831.2	28
2832.06	34
2832.92	28
2833.79	26
2834.65	30
2835.51	28
2836.37	28
2837.23	28
2838.09	24
2838.95	28
2839.81	29
2840.67	23
2841.53	28
2842.39	28
2843.25	29
2844.11	30
2844.97	30
2845.83	24
2846.68	28
2847.54	31
2848.4	25
2849.26	22
2850.12	28
2850.98	32
2851.84	29
2852.69	30
2853.55	27
2854.41	28
2855.27	34
2856.13	31
2856.98	28
2857.84	29
2858.7	30
2859.56	31
2860.41	28
2861.27	31
2862.13	26
2862.98	28
2863.84	32
2864.7	29
2865.55	33
2866.41	24
2867.27	33
2868.12	29
2868.98	26
2869.83	30
2870.69	32
2871.54	30
2872.4	30
2873.25	30
2874.11	26
2874.96	32
2875.82	31
2876.68	35
2877.53	30
2878.38	28
2879.24	30
2880.09	32
2880.95	32
2881.8	34
2882.65	29
2883.51	34
2884.36	32
2885.22	36
2886.07	38
2886.92	37
2887.77	28
2888.63	33
2889.48	38
2890.33	39
2891.19	38
2892.04	40
2892.89	40
2893.74	43
2894.6	38
2895.45	45
2896.3	48
2897.15	48
2898	50
2898.85	44
2899.71	55
2900.56	55
2901.41	55
2902.26	58
2903.11	62
2903.96	64
2904.81	52
2905.66	64
2906.51	62
2907.36	62
2908.21	56
2909.06	63
2909.91	56
2910.76	52
2911.61	55
2912.46	56
2913.31	52
2914.16	50
2915.01	44
2915.86	40
2916.71	41
2917.56	38
2918.41	44
2919.26	36
2920.1	40
2920.95	34
2921.8	33
2922.65	38
2923.5	34
2924.34	34
2925.19	34
2926.04	28
2926.89	34
2927.74	29
2928.58	30
2929.43	32
2930.28	32
2931.12	34
2931.97	35
2932.82	32
2933.66	28
2934.51	35
2935.36	30
2936.2	26
2937.05	30
2937.89	27
2938.74	31
2939.59	28
2940.43	27
2941.28	31
2942.12	26
2942.97	26
2943.81	33
2944.66	32
2945.5	32
2946.35	30
2947.19	29
2948.04	32
2948.88	29
2949.72	32
2950.57	28
2951.41	36
2952.26	30
2953.1	30
2953.94	34
2954.79	34
2955.63	24
2956.47	34
2957.32	36
2958.16	36
2959	38
2959.85	40
2960.69	38
2961.53	42
2962.37	38
2963.22	38
2964.06	46
2964.9	46
2965.74	40
2966.58	42
2967.42	42
2968.27	46
2969.11	44
2969.95	34
2970.79	37
2971.63	40
2972.47	36
2973.31	43
2974.15	38
2974.99	37
2975.83	36
2976.68	32
2977.52	41
2978.36	32
2979.2	32
2980.04	30
2980.88	30
2981.71	30
2982.55	31
2983.39	34
2984.23	28
2985.07	30
2985.91	30
2986.75	26
2987.59	36
2988.43	31
2989.27	24
2990.1	27
2990.94	25
2991.78	31
2992.62	29
2993.46	22
2994.3	29
2995.13	27
2995.97	25
2996.81	27
2997.64	26
2998.48	30
2999.32	25
