#Acq. time (s)=	3
#Accumulations=	3
#Range (cm-¹)=	100...3000
#Windows=	3
#Autofocus=	Off
#AutoExposure=	Off
#Spike filter=	Multiple accum.
#Delay time (s)=	0
#Binning=	1
#Readout mode=	Signal
#DeNoise=	Off
#ICS correction=	Off
#Dark correction=	Off
#Inst. Process=	Off
#Instrument=	LabRAM HR Evol
#Detector=	Syncerity OE
#Objective=	x100_VIS_LWD
#Grating=	600 (500nm)
#ND Filter=	25%
#Laser=	633nm_Edge
#Hole=	100.021
#Range=	Visible
#Project=	Bolus
#Sample=	A4
#Site=	stripside
#Title=	m12
#Remark=	
#Date=	03.11.2025 17:32
#Acquired=	03.11.2025 17:32:12
100.969	28
102.252	40
103.535	34
104.818	30
106.101	34
107.384	40
108.666	33
109.948	32
111.232	33
112.514	32
113.795	36
115.077	30
116.358	36
117.639	30
118.919	39
120.2	29
121.48	37
122.76	39
124.04	37
125.32	36
126.599	36
127.879	34
129.158	40
130.436	37
131.715	33
132.992	36
134.27	40
135.548	38
136.826	30
138.104	33
139.381	39
140.658	40
141.935	34
143.212	38
144.489	42
145.763	42
147.04	38
148.315	45
149.591	42
150.867	36
152.142	43
153.416	45
154.691	44
155.965	43
157.24	47
158.514	40
159.786	42
161.06	44
162.334	40
163.607	42
164.881	40
166.152	45
167.425	43
168.698	41
169.969	39
171.241	42
172.513	46
173.785	36
175.055	38
176.326	42
177.597	42
178.867	44
180.137	46
181.408	44
182.677	42
183.947	34
185.217	36
186.485	42
187.755	46
189.022	45
190.291	38
191.56	40
192.828	34
194.096	48
195.363	43
196.631	44
197.899	39
199.165	48
200.432	44
201.698	42
202.965	38
204.23	41
205.497	36
206.762	38
208.028	46
209.293	44
210.559	38
211.823	40
213.088	30
214.352	41
215.617	41
216.88	41
218.145	37
219.408	40
220.672	39
221.934	38
223.196	40
224.46	42
225.722	37
226.985	40
228.246	38
229.508	35
230.77	35
232.031	38
233.292	34
234.554	36
235.814	30
237.074	39
238.335	30
239.595	34
240.854	36
242.115	35
243.374	37
244.633	39
245.893	38
247.151	34
248.409	41
249.667	33
250.927	30
252.184	37
253.442	35
254.699	32
255.957	32
257.214	32
258.47	37
259.727	30
260.983	28
262.24	37
263.496	35
264.752	31
266.007	41
267.262	32
268.517	30
269.773	30
271.028	40
272.282	32
273.536	32
274.79	26
276.044	31
277.297	32
278.551	30
279.804	26
281.057	29
282.31	38
283.564	34
284.816	32
286.068	35
287.32	34
288.572	30
289.823	38
291.074	34
292.325	32
293.576	35
294.827	38
296.077	33
297.328	34
298.578	36
299.828	34
301.077	34
302.325	37
303.575	37
304.824	35
306.073	29
307.321	33
308.57	31
309.818	32
311.066	32
312.314	32
313.562	33
314.808	32
316.055	32
317.302	34
318.549	34
319.796	28
321.042	28
322.288	35
323.533	32
324.779	36
326.024	34
327.27	33
328.515	32
329.759	37
331.004	32
332.248	34
333.493	28
334.736	28
335.98	30
337.223	40
338.466	29
339.709	33
340.952	30
342.195	37
343.437	29
344.68	33
345.922	36
347.163	35
348.405	33
349.647	36
350.887	30
352.128	34
353.37	35
354.609	34
355.85	35
357.089	30
358.33	33
359.57	29
360.809	34
362.049	31
363.287	26
364.526	29
365.764	42
367.003	36
368.241	30
369.479	32
370.718	36
371.955	37
373.193	34
374.429	33
375.667	30
376.903	31
378.139	36
379.376	34
380.611	35
381.848	32
383.083	32
384.319	32
385.554	35
386.79	32
388.024	33
389.258	35
390.493	33
391.727	32
392.962	36
394.195	40
395.428	34
396.663	32
397.895	34
399.128	36
400.361	26
401.593	28
402.825	28
404.058	34
405.29	38
406.521	34
407.752	30
408.985	28
410.215	32
411.446	30
412.678	36
413.908	28
415.138	30
416.367	36
417.597	30
418.828	32
420.057	38
421.286	32
422.514	33
423.743	34
424.973	32
426.201	28
427.429	32
428.657	30
429.884	30
431.112	29
432.34	32
433.567	28
434.794	40
436.02	27
437.247	35
438.473	32
439.699	34
440.925	35
442.15	31
443.376	32
444.601	35
445.826	34
447.051	33
448.275	20
449.5	38
450.724	32
451.948	34
453.172	35
454.396	35
455.619	35
456.842	34
458.065	30
459.288	33
460.511	33
461.733	34
462.956	34
464.178	41
465.4	37
466.621	26
467.843	35
469.064	34
470.285	38
471.505	32
472.726	40
473.946	42
475.166	40
476.387	42
477.606	44
478.825	43
480.044	48
481.264	42
482.483	52
483.702	54
484.921	59
486.138	54
487.356	56
488.574	62
489.792	55
491.009	60
492.226	58
493.444	57
494.661	57
495.877	56
497.094	44
498.31	46
499.525	52
500.741	38
501.958	48
503.172	52
504.388	42
505.603	42
506.817	38
508.032	44
509.247	36
510.46	40
511.675	42
512.888	34
514.102	42
515.316	42
516.528	36
517.742	38
518.954	36
520.167	36
521.378	39
522.591	32
523.802	36
525.015	36
526.226	35
527.438	34
528.648	37
529.86	28
531.07	32
532.281	30
533.491	30
534.702	37
535.911	33
537.121	29
538.33	32
539.54	32
540.749	24
541.957	34
543.167	34
544.375	28
545.584	32
546.791	36
547.999	33
549.207	28
550.414	26
551.621	31
552.829	35
554.035	30
555.241	30
556.449	26
557.655	28
558.86	32
560.066	26
561.272	36
562.477	34
563.682	27
564.888	36
566.093	28
567.297	30
568.501	30
569.705	29
570.91	35
572.114	30
573.317	33
574.52	31
575.723	34
576.927	33
578.13	33
579.332	36
580.535	30
581.737	30
582.938	34
584.14	32
585.343	32
586.544	34
587.745	36
588.946	28
590.147	36
591.347	36
592.548	35
593.748	27
594.948	32
596.147	28
597.347	36
598.546	32
599.745	34
600.944	28
602.143	35
603.342	32
604.54	37
605.738	31
606.937	30
608.134	28
609.332	38
610.529	26
611.727	30
612.924	30
614.121	31
615.317	28
616.513	30
617.709	32
618.905	36
620.101	32
621.297	33
622.492	36
623.688	30
624.883	33
626.077	31
627.271	30
628.466	32
629.66	28
630.855	28
632.047	33
633.241	33
634.435	30
635.629	30
636.82	31
638.014	34
639.207	30
640.399	30
641.59	35
642.783	26
643.975	32
645.166	39
646.357	41
647.549	36
648.741	37
649.93	37
651.122	31
652.311	33
653.502	32
654.692	32
655.881	36
657.071	39
658.261	29
659.45	37
660.639	33
661.827	35
663.016	30
664.204	36
665.393	26
666.581	36
667.769	30
668.957	34
670.143	28
671.331	36
672.518	30
673.705	37
674.891	39
676.078	40
677.264	38
678.451	36
679.636	34
680.821	34
682.007	34
683.192	36
684.378	34
685.562	37
686.747	40
687.931	41
689.115	38
690.3	37
691.483	40
692.666	36
693.851	40
695.034	34
696.216	40
697.4	42
698.582	38
699.764	39
700.948	42
702.129	39
703.311	41
704.493	44
705.674	44
706.855	50
708.036	53
709.218	52
710.399	52
711.579	49
712.759	44
713.939	43
715.12	38
716.299	40
717.478	43
718.657	37
719.836	33
721.015	34
722.195	30
723.373	36
724.552	34
725.729	35
726.907	33
728.085	29
729.262	32
730.44	34
731.617	36
732.795	33
733.972	29
735.148	35
736.324	33
737.501	34
738.677	37
739.852	36
741.028	33
742.203	32
743.379	30
744.554	34
745.729	28
746.903	34
748.078	28
749.252	34
750.426	38
751.599	27
752.772	29
753.946	32
755.119	28
756.293	33
757.466	34
758.639	33
759.811	30
760.984	32
762.155	32
763.327	29
764.499	36
765.67	30
766.842	26
768.013	32
769.183	32
770.354	32
771.525	34
772.696	26
773.865	36
775.035	32
776.205	32
777.375	36
778.544	30
779.713	30
780.882	32
782.052	28
783.219	32
784.388	30
785.557	32
786.724	38
787.892	34
789.06	38
790.227	32
791.395	34
792.562	32
793.728	32
794.895	35
796.061	34
797.228	36
798.395	38
799.56	36
800.726	34
801.891	32
803.057	35
804.221	34
805.387	33
806.551	34
807.716	35
808.879	31
810.044	32
811.208	26
812.372	34
813.535	34
814.699	29
815.862	24
817.025	30
818.188	33
819.351	32
820.513	30
821.675	36
822.837	36
823.999	30
825.161	33
826.322	28
827.483	30
828.645	35
829.805	20
830.966	38
832.127	34
833.287	28
834.447	34
835.607	33
836.767	35
837.926	34
839.085	24
840.245	30
841.404	30
842.562	31
843.72	32
844.88	36
846.038	26
847.195	30
848.353	30
849.512	36
850.669	28
851.826	34
852.983	30
854.139	26
855.296	29
856.453	32
857.609	33
858.765	34
859.921	36
861.077	32
862.232	36
863.387	36
864.542	29
865.697	30
866.852	30
868.008	34
869.162	32
870.316	31
871.47	30
872.624	30
873.778	35
874.931	30
876.084	40
877.237	34
878.39	32
879.543	38
880.695	38
881.846	40
882.999	32
884.151	30
885.302	30
886.454	28
887.606	29
888.757	28
889.908	30
891.059	30
892.21	34
893.359	30
894.509	32
895.659	31
896.81	29
897.959	32
899.109	32
900.257	30
901.407	32
902.556	37
903.705	30
904.854	34
906.001	30
907.149	28
908.298	22
909.446	29
910.592	33
911.74	32
912.888	34
914.034	26
915.181	28
916.328	32
917.473	32
918.62	29
919.766	30
920.911	24
922.058	30
923.204	28
924.348	34
925.494	30
926.638	32
927.783	28
928.928	28
930.072	30
931.216	34
932.36	28
933.504	28
934.647	25
935.791	30
936.933	31
938.077	32
939.219	34
940.363	32
941.504	33
942.647	30
943.789	32
944.932	33
946.073	30
947.215	27
948.356	33
949.498	28
950.638	30
951.778	33
952.92	28
954.06	34
955.199	28
956.34	25
957.479	26
958.62	32
959.759	26
960.898	28
962.038	32
963.176	28
964.315	31
965.453	30
966.592	32
967.73	22
968.867	30
970.006	30
971.144	30
972.281	28
973.418	33
974.554	30
975.692	32
976.829	30
977.965	33
979.101	28
980.237	36
981.374	29
982.509	30
983.645	29
984.78	27
985.915	28
987.05	34
988.184	29
989.319	30
990.453	31
991.589	29
992.722	30
993.856	32
994.99	38
996.123	24
997.257	30
998.39	30
999.523	31
1000.66	26
1001.79	34
1002.92	22
1004.05	34
1005.18	34
1006.32	36
1007.45	29
1008.58	30
1009.71	24
1010.84	28
1011.97	28
1013.1	28
1014.23	33
1015.36	29
1016.49	30
1017.62	26
1018.75	30
1019.88	30
1021.01	32
1022.14	32
1023.27	32
1024.4	33
1025.53	33
1026.66	29
1027.79	30
1028.91	28
1030.04	33
1031.17	30
1032.3	31
1033.42	28
1034.55	28
1035.68	26
1036.81	32
1037.93	29
1039.06	32
1040.18	26
1041.31	26
1042.44	27
1043.56	30
1044.69	27
1045.81	34
1046.94	28
1048.06	30
1049.19	30
1050.31	31
1051.44	28
1052.56	28
1053.69	31
1054.81	33
1055.93	28
1057.06	30
1058.18	32
1059.3	33
1060.43	32
1061.55	31
1062.67	34
1063.79	28
1064.92	32
1066.04	31
1067.16	31
1068.28	30
1069.4	32
1070.52	28
1071.65	33
1072.77	30
1073.89	30
1075.01	35
1076.13	26
1077.25	34
1078.37	31
1079.49	30
1080.61	36
1081.73	22
1082.85	28
1083.97	27
1085.09	36
1086.2	29
1087.32	28
1088.44	28
1089.56	29
1090.68	28
1091.8	35
1092.91	28
1094.03	24
1095.15	33
1096.26	23
1097.38	30
1098.5	30
1099.61	27
1100.73	26
1101.85	34
1102.96	29
1104.08	32
1105.19	32
1106.31	31
1107.43	27
1108.54	31
1109.66	30
1110.77	33
1111.88	26
1113	30
1114.11	30
1115.23	32
1116.34	28
1117.46	24
1118.57	32
1119.68	33
1120.8	28
1121.91	28
1123.02	32
1124.13	28
1125.25	32
1126.36	27
1127.47	32
1128.58	28
1129.69	31
1130.8	31
1131.92	24
1133.03	32
1134.14	30
1135.25	32
1136.36	24
1137.47	31
1138.58	29
1139.69	30
1140.8	30
1141.91	27
1143.02	24
1144.13	32
1145.24	28
1146.35	22
1147.46	30
1148.56	29
1149.67	30
1150.78	30
1151.89	31
1153	27
1154.1	31
1155.21	29
1156.32	34
1157.43	31
1158.53	29
1159.64	28
1160.75	29
1161.85	27
1162.96	33
1164.07	24
1165.17	32
1166.28	31
1167.38	31
1168.49	28
1169.59	29
1170.7	32
1171.8	29
1172.91	29
1174.01	31
1175.12	32
1176.22	31
1177.32	30
1178.43	31
1179.53	31
1180.64	30
1181.74	27
1182.84	26
1183.94	28
1185.05	26
1186.15	32
1187.25	29
1188.35	29
1189.46	29
1190.56	30
1191.66	29
1192.76	29
1193.86	26
1194.96	27
1196.06	27.0147
1197.16	30.9355
1198.26	28.9872
1199.37	29.1029
1200.47	24.2559
1201.57	29.951
1202.67	30.7294
1203.77	26.8582
1204.86	24.0781
1205.96	30.4953
1207.06	26.8389
1208.16	28.6112
1209.26	22.4246
1210.36	32.1448
1211.46	29.6434
1212.56	27.1509
1213.65	27.7653
1214.75	34.1879
1215.85	27.6488
1216.95	27.4186
1218.04	31.5931
1219.14	27.7748
1220.24	28.4083
1221.33	27.7509
1222.43	27.1356
1223.53	25.9368
1224.62	25.4609
1225.72	19.9739
1226.82	34.0841
1227.91	27.6709
1229.01	31.7599
1230.1	31.1219
1231.2	26.2392
1232.29	26.7447
1233.39	28.9813
1234.48	24.88
1235.58	30.5684
1236.67	27.317
1237.77	28.2729
1238.86	24.5355
1239.95	29.1648
1241.05	26.8336
1242.14	26.4528
1243.23	29.3492
1244.33	27.2837
1245.42	26.2885
1246.51	29.2891
1247.61	30.2221
1248.7	28.4755
1249.79	27.8088
1250.88	28.3254
1251.97	26.3752
1253.07	26.3286
1254.16	29.7564
1255.25	30.735
1256.34	28.445
1257.43	29.064
1258.52	26.2059
1259.61	25.3004
1260.7	27.583
1261.79	31.1806
1262.88	29.6676
1263.97	29.328
1265.06	32.0781
1266.15	29.8411
1267.24	26.0906
1268.33	27.8157
1269.42	28.173
1270.51	27.1433
1271.6	28.5201
1272.68	29.4052
1273.77	30.5425
1274.86	28.9494
1275.95	27.0316
1277.04	27.9561
1278.12	25.2519
1279.21	24.7032
1280.3	25.3308
1281.39	25.2822
1282.47	27.4161
1283.56	26.7616
1284.65	29.9186
1285.73	27.0606
1286.82	25.0918
1287.91	27.9023
1288.99	27.2335
1290.08	26.0936
1291.16	20.8426
1292.25	26.7527
1293.33	24.8825
1294.42	23.9073
1295.5	24.9265
1296.59	25.0037
1297.67	27.8333
1298.76	28.3455
1299.84	31.1423
1300.92	26.3017
1302.01	28.462
1303.09	31.5418
1304.17	27.6553
1305.26	24.0294
1306.34	24.0147
1307.34	24
1308.43	26
1309.52	30
1310.61	26
1311.7	30
1312.78	30
1313.87	31
1314.96	32
1316.04	28
1317.13	25
1318.22	28
1319.3	26
1320.39	26
1321.48	26
1322.56	28
1323.65	32
1324.73	26
1325.82	27
1326.9	26
1327.99	36
1329.07	28
1330.16	27
1331.24	30
1332.33	25
1333.41	32
1334.5	31
1335.58	28
1336.66	26
1337.75	29
1338.83	30
1339.91	28
1341	36
1342.08	28
1343.16	28
1344.24	30
1345.33	26
1346.41	30
1347.49	32
1348.57	27
1349.65	28
1350.74	27
1351.82	34
1352.9	31
1353.98	30
1355.06	33
1356.14	28
1357.22	28
1358.3	28
1359.38	27
1360.46	29
1361.54	25
1362.62	24
1363.7	31
1364.78	25
1365.86	29
1366.94	31
1368.02	32
1369.09	28
1370.17	28
1371.25	30
1372.33	31
1373.41	24
1374.48	35
1375.56	30
1376.64	33
1377.72	30
1378.79	30
1379.87	24
1380.95	26
1382.02	27
1383.1	28
1384.17	31
1385.25	32
1386.33	25
1387.4	30
1388.48	24
1389.55	30
1390.63	25
1391.7	32
1392.78	33
1393.85	31
1394.93	28
1396	27
1397.07	31
1398.15	30
1399.22	32
1400.3	28
1401.37	32
1402.44	30
1403.52	36
1404.59	32
1405.66	35
1406.73	37
1407.81	37
1408.88	34
1409.95	36
1411.02	31
1412.09	28
1413.17	38
1414.24	35
1415.31	33
1416.38	38
1417.45	32
1418.52	30
1419.59	33
1420.66	31
1421.73	31
1422.8	30
1423.87	28
1424.94	28
1426.01	29
1427.08	32
1428.15	28
1429.22	30
1430.29	30
1431.35	29
1432.42	28
1433.49	30
1434.56	34
1435.63	31
1436.69	28
1437.76	34
1438.83	30
1439.9	30
1440.96	35
1442.03	26
1443.1	28
1444.17	26
1445.23	24
1446.3	32
1447.36	31
1448.43	26
1449.49	34
1450.56	31
1451.63	30
1452.69	28
1453.76	30
1454.82	27
1455.89	30
1456.95	33
1458.01	30
1459.08	33
1460.14	27
1461.21	30
1462.27	27
1463.34	31
1464.4	28
1465.46	24
1466.52	26
1467.59	31
1468.65	24
1469.71	30
1470.77	31
1471.84	30
1472.9	32
1473.96	24
1475.02	28
1476.08	32
1477.15	33
1478.21	28
1479.27	25
1480.33	32
1481.39	32
1482.45	30
1483.51	33
1484.57	32
1485.63	24
1486.69	28
1487.75	29
1488.81	28
1489.87	30
1490.93	32
1491.99	27
1493.05	22
1494.1	35
1495.16	26
1496.22	29
1497.28	30
1498.34	29
1499.4	32
1500.45	24
1501.51	30
1502.57	25
1503.63	28
1504.68	29
1505.74	33
1506.8	30
1507.85	28
1508.91	30
1509.97	30
1511.02	30
1512.08	29
1513.13	22
1514.19	27
1515.24	28
1516.3	34
1517.35	34
1518.41	26
1519.46	25
1520.52	26
1521.57	28
1522.63	31
1523.68	29
1524.73	31
1525.79	35
1526.84	30
1527.9	30
1528.95	32
1530	31
1531.05	32
1532.11	33
1533.16	29
1534.21	26
1535.26	30
1536.32	31
1537.37	26
1538.42	33
1539.47	32
1540.52	24
1541.57	26
1542.63	30
1543.68	32
1544.73	26
1545.78	31
1546.83	32
1547.88	29
1548.93	25
1549.98	24
1551.03	23
1552.08	29
1553.13	25
1554.18	30
1555.23	26
1556.27	29
1557.32	30
1558.37	26
1559.42	31
1560.47	31
1561.52	28
1562.56	29
1563.61	32
1564.66	32
1565.71	29
1566.75	28
1567.8	29
1568.85	28
1569.9	31
1570.94	28
1571.99	33
1573.03	23
1574.08	27
1575.13	23
1576.17	27
1577.22	28
1578.26	30
1579.31	30
1580.35	26
1581.4	28
1582.44	28
1583.49	26
1584.53	25
1585.58	32
1586.62	32
1587.66	34
1588.71	35
1589.75	28
1590.8	25
1591.84	30
1592.88	20
1593.92	26
1594.97	29
1596.01	23
1597.05	31
1598.1	31
1599.14	26
1600.18	31
1601.22	32
1602.26	23
1603.3	30
1604.35	26
1605.39	33
1606.43	28
1607.47	32
1608.51	32
1609.55	30
1610.59	30
1611.63	26
1612.67	28
1613.71	30
1614.75	24
1615.79	24
1616.83	30
1617.87	32
1618.91	26
1619.95	32
1620.99	25
1622.02	27
1623.06	29
1624.1	29
1625.14	27
1626.18	29
1627.21	30
1628.25	28
1629.29	31
1630.33	28
1631.36	26
1632.4	29
1633.44	29
1634.48	30
1635.51	28
1636.55	30
1637.58	32
1638.62	30
1639.66	28
1640.69	29
1641.73	30
1642.76	34
1643.8	24
1644.83	31
1645.87	31
1646.9	30
1647.94	30
1648.97	32
1650	32
1651.04	27
1652.07	28
1653.11	28
1654.14	29
1655.17	28
1656.21	26
1657.24	28
1658.27	29
1659.31	34
1660.34	27
1661.37	28
1662.4	27
1663.43	27
1664.47	25
1665.5	24
1666.53	29
1667.56	30
1668.59	34
1669.62	33
1670.66	25
1671.69	26
1672.72	32
1673.75	28
1674.78	28
1675.81	29
1676.84	31
1677.87	28
1678.9	28
1679.93	27
1680.96	26
1681.98	26
1683.01	30
1684.04	25
1685.07	32
1686.1	32
1687.13	28
1688.16	30
1689.18	29
1690.21	25
1691.24	27
1692.27	28
1693.3	30
1694.32	30
1695.35	30
1696.38	30
1697.4	28
1698.43	34
1699.46	26
1700.48	27
1701.51	29
1702.54	28
1703.56	31
1704.59	24
1705.61	28
1706.64	32
1707.66	30
1708.69	31
1709.71	30
1710.74	28
1711.76	28
1712.79	34
1713.81	27
1714.83	37
1715.86	24
1716.88	29
1717.91	32
1718.93	30
1719.95	33
1720.98	36
1722	31
1723.02	32
1724.04	30
1725.07	30
1726.09	30
1727.11	37
1728.13	30
1729.15	30
1730.18	28
1731.2	30
1732.22	31
1733.24	28
1734.26	31
1735.28	34
1736.3	28
1737.32	26
1738.34	28
1739.36	30
1740.38	30
1741.4	34
1742.42	30
1743.44	28
1744.46	28
1745.48	31
1746.5	27
1747.52	28
1748.54	28
1749.56	27
1750.58	32
1751.6	33
1752.61	24
1753.63	26
1754.65	28
1755.67	30
1756.68	29
1757.7	26
1758.72	28
1759.74	31
1760.75	31
1761.77	28
1762.79	26
1763.8	29
1764.82	29
1765.83	26
1766.85	32
1767.87	30
1768.88	29
1769.9	26
1770.91	28
1771.93	24
1772.94	27
1773.96	28
1774.97	28
1775.99	27
1777	22
1778.02	33
1779.03	22
1780.04	29
1781.06	24
1782.07	32
1783.09	30
1784.1	32
1785.11	25
1786.13	31
1787.14	25
1788.15	26
1789.16	26
1790.18	28
1791.19	33
1792.2	29
1793.21	28
1794.22	30
1795.23	28
1796.25	27
1797.26	30
1798.27	26
1799.28	30
1800.29	28
1801.3	25
1802.31	30
1803.32	30
1804.33	35
1805.34	30
1806.35	28
1807.36	27
1808.37	29
1809.38	28
1810.39	28
1811.4	27
1812.41	30
1813.42	28
1814.42	30
1815.43	29
1816.44	29
1817.45	33
1818.46	30
1819.47	26
1820.47	26
1821.48	34
1822.49	27
1823.49	35
1824.5	27
1825.51	30
1826.52	29
1827.52	30
1828.53	30
1829.53	27
1830.54	26
1831.55	28
1832.55	29
1833.56	28
1834.56	22
1835.57	26
1836.57	26
1837.58	27
1838.58	26
1839.59	33
1840.59	26
1841.6	22
1842.6	31
1843.61	28
1844.61	30
1845.61	26
1846.62	27
1847.62	30
1848.62	30
1849.63	23
1850.63	26
1851.63	30
1852.64	30
1853.64	20
1854.64	28
1855.64	21
1856.64	31
1857.65	26
1858.65	27
1859.65	29
1860.65	25
1861.65	24
1862.65	28
1863.65	31
1864.66	30
1865.66	30
1866.66	32
1867.66	28
1868.66	29
1869.66	34
1870.66	28
1871.66	33
1872.66	29
1873.66	22
1874.66	28
1875.65	31
1876.65	25
1877.65	28
1878.65	27
1879.65	29
1880.65	27
1881.65	26
1882.64	28
1883.64	26
1884.64	32
1885.64	34
1886.63	29
1887.63	25
1888.63	28
1889.63	29
1890.62	29
1891.62	26
1892.62	26
1893.61	31
1894.61	25
1895.6	24
1896.6	28
1897.6	28
1898.59	33
1899.59	28
1900.58	34
1901.58	30
1902.57	28
1903.57	27
1904.56	28
1905.56	28
1906.55	30
1907.54	33
1908.54	26
1909.53	26
1910.53	31
1911.52	31
1912.51	28
1913.51	31
1914.5	30
1915.49	26
1916.49	32
1917.48	30
1918.47	28
1919.46	26
1920.46	26
1921.45	32
1922.44	29
1923.43	30
1924.42	27
1925.41	25
1926.41	28
1927.4	27
1928.39	28
1929.38	25
1930.37	28
1931.36	27
1932.35	28
1933.34	28
1934.33	25
1935.32	27
1936.31	27
1937.3	29
1938.29	26
1939.28	28
1940.27	26
1941.26	20
1942.24	29
1943.23	29
1944.22	29
1945.21	30
1946.2	26
1947.19	24
1948.17	26
1949.16	26
1950.15	25.5
1951.14	22
1952.12	29
1953.11	31
1954.1	30
1955.09	28
1956.07	22
1957.06	27
1958.05	26
1959.03	22
1960.02	28
1961	23
1961.99	30
1962.98	28
1963.96	29
1964.95	28
1965.93	29
1966.92	26
1967.9	28
1968.89	23
1969.87	31
1970.85	27
1971.84	25
1972.82	26
1973.81	30
1974.79	28
1975.78	28
1976.76	24
1977.74	32
1978.73	26
1979.71	30
1980.69	34
1981.67	30
1982.66	26
1983.64	24
1984.62	27
1985.6	29
1986.59	29
1987.57	28
1988.55	27
1989.53	30
1990.51	26
1991.49	26
1992.47	26
1993.45	30
1994.44	26
1995.42	31
1996.4	30
1997.38	26
1998.36	30
1999.34	26
2000.32	29
2001.3	26
2002.28	26
2003.26	28
2004.24	34
2005.22	28
2006.19	28
2007.17	28
2008.15	31
2009.13	24
2010.11	27
2011.09	25
2012.06	24
2013.04	28
2014.02	20
2015	27
2015.98	20
2016.95	27
2017.93	30
2018.91	20
2019.88	29
2020.86	29
2021.84	25
2022.81	32
2023.79	22
2024.77	30
2025.74	29
2026.72	24
2027.69	24
2028.67	24
2029.65	21
2030.62	30
2031.6	22
2032.57	28
2033.55	30
2034.52	24
2035.5	28
2036.47	27
2037.44	23
2038.42	30
2039.39	32
2040.36	27
2041.34	27
2042.31	22
2043.29	26
2044.26	18
2045.23	24
2046.2	26
2047.18	22
2048.15	30
2049.12	23
2050.09	29
2051.07	28
2052.04	28
2053.01	27
2053.98	25
2054.95	24
2055.93	26
2056.9	23
2057.87	28
2058.84	28
2059.81	27
2060.78	24
2061.75	26
2062.72	28
2063.69	24
2064.66	26
2065.63	26
2066.6	28
2067.57	20
2068.54	29
2069.51	28
2070.48	29
2071.45	24
2072.42	26
2073.38	26
2074.35	24
2075.32	25
2076.29	25
2077.26	24
2078.23	28
2079.19	24
2080.16	31
2081.13	26
2082.1	27
2083.06	24
2084.03	25
2085	26
2085.96	26
2086.93	23
2087.9	28
2088.86	26
2089.83	23
2090.8	28
2091.76	33
2092.73	27
2093.69	26
2094.66	29
2095.62	27
2096.59	26
2097.55	22
2098.52	26
2099.48	26
2100.45	28
2101.41	26
2102.38	28
2103.34	30
2104.31	27
2105.27	31
2106.23	25
2107.2	29
2108.16	31
2109.12	24
2110.09	27
2111.05	30
2112.01	22
2112.98	24
2113.94	26
2114.9	22
2115.86	24
2116.82	26
2117.79	26
2118.75	28
2119.71	30
2120.67	26
2121.63	30
2122.59	28
2123.55	26
2124.52	22
2125.48	32
2126.44	30
2127.4	24
2128.36	30
2129.32	26
2130.28	27
2131.24	24
2132.2	25
2133.16	28
2134.12	24
2135.08	22
2136.04	30
2136.99	29
2137.95	25
2138.91	28
2139.87	25
2140.83	28
2141.79	24
2142.75	28
2143.7	24
2144.66	26
2145.62	26.9937
2146.58	18.0829
2147.53	28.0428
2148.49	20.2374
2149.45	27.9084
2150.41	28.7652
2151.36	28.4687
2152.32	26.2897
2153.27	29.912
2154.23	27.0834
2155.19	25.9905
2156.14	29.3282
2157.1	25.8909
2158.06	27.9919
2159.01	31.1619
2159.97	28.2845
2160.92	29.0319
2161.88	25.8339
2162.83	25.542
2163.79	29.2353
2164.74	24.0019
2165.7	28.1549
2166.65	22.8792
2167.61	24.3273
2168.56	25.0392
2169.51	22.9704
2170.47	24.0178
2171.42	24.5175
2172.38	29.2561
2173.33	25.118
2174.28	26.7994
2175.24	27.7284
2176.19	23.4664
2177.14	24.6863
2178.09	28.2689
2179.05	27.2211
2180	22.7758
2180.95	23.3676
2181.9	25.3651
2182.86	27.9161
2183.81	27.7013
2184.76	22.0896
2185.71	26.175
2186.66	26.625
2187.61	25.9828
2188.57	23.7203
2189.52	24.2698
2190.47	25.9339
2191.42	23.6644
2192.37	27.3824
2193.32	26.0577
2194.27	26.947
2195.22	26.83
2196.17	26.45
2197.12	26.4657
2198.07	25.1101
2199.02	26.2304
2199.97	26.2001
2200.92	25.0337
2201.87	25.632
2202.82	22.8991
2203.76	23.7284
2204.71	24.9848
2205.66	27.3107
2206.61	26.3062
2207.56	26.0333
2208.51	26.6829
2209.45	26.8231
2210.4	27.3284
2211.35	25.0281
2212.3	25.52
2213.24	26.6386
2214.19	22.886
2215.14	23.2052
2216.09	25.6046
2217.03	25.2788
2217.98	28.3151
2218.93	26.9692
2219.87	27.1529
2220.82	26.4193
2221.77	25.2253
2222.71	26.7475
2223.66	25.3546
2224.6	25.1025
2225.55	24.8941
2226.49	24.7868
2227.44	22.0442
2228.38	23.9249
2229.33	23.6251
2230.27	26.4838
2231.22	26.3065
2232.16	26
2233.11	23.3538
2234.05	19.1662
2235	23.7794
2235.94	25.6919
2236.88	24.0539
2237.83	25.8088
2238.77	24.7368
2239.71	24.7982
2240.66	23.6812
2241.6	26.6124
2242	30
2242.95	22
2243.9	26
2244.84	30
2245.79	28
2246.74	28
2247.69	23
2248.63	24
2249.58	18
2250.53	27
2251.47	24
2252.42	22
2253.37	26
2254.31	21
2255.26	28
2256.2	23
2257.15	28
2258.1	27
2259.04	22
2259.99	22
2260.93	29
2261.88	24
2262.82	25
2263.77	22
2264.71	26
2265.65	26
2266.6	28
2267.54	26
2268.49	23
2269.43	24
2270.38	24
2271.32	29
2272.26	27
2273.21	28
2274.15	26
2275.09	26
2276.04	26
2276.98	22
2277.92	24
2278.86	26
2279.81	25
2280.75	26
2281.69	29
2282.63	27
2283.57	24
2284.52	26
2285.46	28
2286.4	27
2287.34	20
2288.28	28
2289.22	28
2290.16	22
2291.1	28
2292.04	29
2292.98	30
2293.93	28
2294.86	27
2295.8	26
2296.74	27
2297.69	25
2298.62	20
2299.56	28
2300.5	23
2301.44	27
2302.38	28
2303.32	24
2304.26	29
2305.2	24
2306.14	22
2307.07	28
2308.01	25
2308.95	24
2309.89	24
2310.83	25
2311.76	28
2312.7	24
2313.64	25
2314.58	24
2315.51	32
2316.45	24
2317.39	22
2318.32	24
2319.26	26
2320.2	26
2321.13	22
2322.07	24
2323	28
2323.94	30
2324.88	31
2325.81	25
2326.75	29
2327.68	30
2328.62	24
2329.55	25
2330.49	32
2331.42	22
2332.36	25
2333.29	26
2334.22	27
2335.16	29
2336.09	28
2337.03	26
2337.96	24
2338.89	26
2339.83	24
2340.76	27
2341.69	29
2342.63	26
2343.56	26
2344.49	22
2345.43	22
2346.36	31
2347.29	23
2348.22	27
2349.15	20
2350.09	26
2351.02	28
2351.95	25
2352.88	26
2353.81	24
2354.74	29
2355.67	26
2356.61	26
2357.54	26
2358.47	30
2359.4	27
2360.33	26
2361.26	26
2362.19	30
2363.12	27
2364.05	25
2364.98	22
2365.91	24
2366.84	28
2367.77	30
2368.7	24
2369.62	20
2370.55	27
2371.48	30
2372.41	28
2373.34	25
2374.27	26
2375.2	26
2376.12	22
2377.05	24
2377.98	22
2378.91	21
2379.83	31
2380.76	21
2381.69	26
2382.62	26
2383.54	31
2384.47	24
2385.4	31
2386.32	23
2387.25	25
2388.18	29
2389.1	26
2390.03	32
2390.95	30
2391.88	26
2392.81	30
2393.73	28
2394.66	18
2395.58	22
2396.51	26
2397.43	22
2398.36	26
2399.28	24
2400.2	32
2401.13	28
2402.05	27
2402.98	27
2403.9	26
2404.83	26
2405.75	24
2406.67	27
2407.6	30
2408.52	24
2409.44	26
2410.37	28
2411.29	22
2412.21	28
2413.13	22
2414.06	24
2414.98	28
2415.9	22
2416.82	24
2417.74	25
2418.67	26
2419.59	34
2420.51	26
2421.43	28
2422.35	22
2423.27	25
2424.19	26
2425.11	24
2426.03	28
2426.96	29
2427.88	25
2428.8	28
2429.72	26
2430.64	22
2431.56	30
2432.48	24
2433.39	28
2434.31	28
2435.23	32
2436.15	27
2437.07	28
2437.99	26
2438.91	26
2439.83	31
2440.75	30
2441.67	25
2442.58	28
2443.5	29
2444.42	31
2445.34	28
2446.26	24
2447.17	24
2448.09	22
2449.01	22
2449.92	27
2450.84	27
2451.76	24
2452.68	28
2453.59	22
2454.51	24
2455.42	24
2456.34	28
2457.26	28
2458.17	25
2459.09	20
2460	23
2460.92	23
2461.83	29
2462.75	24
2463.66	29
2464.58	27
2465.49	30
2466.41	26
2467.32	23
2468.24	30
2469.15	27
2470.07	25
2470.98	26
2471.89	18
2472.81	25
2473.72	26
2474.64	28
2475.55	28
2476.46	25
2477.37	22
2478.29	25
2479.2	26
2480.11	22
2481.03	26
2481.94	24
2482.85	24
2483.76	30
2484.67	24
2485.59	24
2486.5	27
2487.41	25
2488.32	26
2489.23	26
2490.14	27
2491.05	28
2491.97	20
2492.88	24
2493.79	28
2494.7	31
2495.61	28
2496.52	28
2497.43	26
2498.34	22
2499.25	26
2500.16	26
2501.07	27
2501.98	28
2502.89	28
2503.79	24
2504.7	25
2505.61	29
2506.52	28
2507.43	26
2508.34	31
2509.25	22
2510.16	22
2511.06	31
2511.97	26
2512.88	30
2513.79	25
2514.69	24
2515.6	27
2516.51	23
2517.42	22
2518.32	26
2519.23	30
2520.14	33
2521.04	24
2521.95	29
2522.86	25
2523.76	24
2524.67	28
2525.57	32
2526.48	27
2527.39	26
2528.29	24
2529.2	26
2530.1	26
2531.01	24
2531.91	29
2532.82	28
2533.72	26
2534.63	28
2535.53	25
2536.44	26
2537.34	22
2538.24	26
2539.15	23
2540.05	26
2540.96	28
2541.86	29
2542.76	28
2543.67	26
2544.57	30
2545.47	22
2546.37	28
2547.28	24
2548.18	34
2549.08	22
2549.99	30
2550.89	26
2551.79	23
2552.69	28
2553.59	27
2554.49	28
2555.4	26
2556.3	24
2557.2	29
2558.1	29
2559	28
2559.9	29
2560.8	18
2561.7	26
2562.6	28
2563.5	26
2564.4	20
2565.3	26
2566.2	24
2567.1	22
2568	24
2568.9	26
2569.8	26
2570.7	24
2571.6	29
2572.5	29
2573.4	30
2574.3	27
2575.2	30
2576.1	28
2576.99	30
2577.89	22
2578.79	26
2579.69	22
2580.59	28
2581.48	24
2582.38	27
2583.28	24
2584.18	28
2585.07	26
2585.97	30
2586.87	28
2587.76	28
2588.66	24
2589.56	27
2590.45	26
2591.35	28
2592.25	24
2593.14	26
2594.04	26
2594.93	27
2595.83	28
2596.73	28
2597.62	22
2598.52	27
2599.41	24
2600.31	23
2601.2	21
2602.1	26
2602.99	29
2603.88	28
2604.78	29
2605.67	24
2606.57	31
2607.46	22
2608.35	20
2609.25	26
2610.14	28
2611.03	27
2611.93	26
2612.82	30
2613.71	25
2614.61	28
2615.5	28
2616.39	29
2617.29	32
2618.18	28
2619.07	30
2619.96	22
2620.85	25
2621.75	26
2622.64	22
2623.53	26
2624.42	25
2625.31	28
2626.2	33
2627.09	27
2627.98	29
2628.88	36
2629.77	28
2630.66	26
2631.55	22
2632.44	25
2633.33	30
2634.22	26
2635.11	22
2636	31
2636.89	24
2637.78	27
2638.66	29
2639.55	28
2640.44	24
2641.33	22
2642.22	26
2643.11	24
2644	28
2644.89	24
2645.78	26
2646.66	29
2647.55	26
2648.44	25
2649.33	32
2650.21	27
2651.1	28
2651.99	26
2652.88	26
2653.76	30
2654.65	31
2655.54	25
2656.42	20
2657.31	28
2658.2	30
2659.08	26
2659.97	24
2660.86	30
2661.74	26
2662.63	25
2663.51	29
2664.4	31
2665.29	29
2666.17	28
2667.06	28
2667.94	26
2668.83	23
2669.71	24
2670.6	22
2671.48	22
2672.36	28
2673.25	30
2674.13	28
2675.02	27
2675.9	27
2676.78	30
2677.67	26
2678.55	28
2679.43	31
2680.32	25
2681.2	23
2682.08	20
2682.97	28
2683.85	24
2684.73	27
2685.61	30
2686.5	26
2687.38	28
2688.26	28
2689.14	25
2690.03	22
2690.91	28
2691.79	24
2692.67	29
2693.55	33
2694.43	26
2695.31	26
2696.19	26
2697.08	28
2697.96	26
2698.84	29
2699.72	29
2700.6	30
2701.48	30
2702.36	27
2703.24	29
2704.12	26
2705	26
2705.88	27
2706.76	26
2707.64	27
2708.51	28
2709.39	24
2710.27	18
2711.15	28
2712.03	28
2712.91	24
2713.79	20
2714.67	28
2715.54	24
2716.42	26
2717.3	20
2718.18	28
2719.05	28
2719.93	31
2720.81	31
2721.69	34
2722.56	24
2723.44	30
2724.32	26
2725.19	25
2726.07	30
2726.95	28
2727.82	31
2728.7	29
2729.58	31
2730.45	34
2731.33	22
2732.2	23
2733.08	30
2733.95	28
2734.83	30
2735.7	34
2736.58	30
2737.45	27
2738.33	29
2739.2	24
2740.08	22
2740.95	26
2741.83	28
2742.7	24
2743.58	22
2744.45	33
2745.32	29
2746.2	29
2747.07	23
2747.94	28
2748.82	30
2749.69	28
2750.56	28
2751.44	30
2752.31	28
2753.18	25
2754.05	26
2754.93	30
2755.8	26
2756.67	29
2757.54	33
2758.42	26
2759.29	26
2760.16	24
2761.03	30
2761.9	30
2762.77	31
2763.64	24
2764.51	28
2765.38	26
2766.26	27
2767.13	26
2768	26
2768.87	29
2769.74	28
2770.61	25
2771.48	28
2772.35	31
2773.22	28
2774.09	28
2774.96	29
2775.83	27
2776.7	27
2777.56	30
2778.43	24
2779.3	28
2780.17	22
2781.04	30
2781.91	27
2782.78	30
2783.64	25
2784.51	27
2785.38	31
2786.25	28
2787.12	30
2787.98	27
2788.85	31
2789.72	24
2790.59	28
2791.45	24
2792.32	28
2793.19	29
2794.05	32
2794.92	31
2795.79	32
2796.65	32
2797.52	34
2798.38	27
2799.25	24
2800.12	26
2800.98	28
2801.85	28
2802.71	22
2803.58	27
2804.44	28
2805.31	28
2806.17	30
2807.04	31
2807.9	28
2808.77	28
2809.63	31
2810.5	29
2811.36	28
2812.22	33
2813.09	29
2813.95	27
2814.82	27
2815.68	31
2816.54	27
2817.41	24
2818.27	32
2819.13	28
2820	28
2820.86	30
2821.72	33
2822.58	32
2823.45	30
2824.31	26
2825.17	31
2826.03	28
2826.9	31
2827.76	29
2828.62	25
2829.48	27
2830.34	32
2831.2	31
2832.06	32
2832.92	29
2833.79	28
2834.65	30
2835.51	33
2836.37	30
2837.23	26
2838.09	28
2838.95	32
2839.81	28
2840.67	26
2841.53	30
2842.39	32
2843.25	22
2844.11	33
2844.97	32
2845.83	22
2846.68	30
2847.54	25
2848.4	30
2849.26	28
2850.12	25
2850.98	31
2851.84	27
2852.69	29
2853.55	26
2854.41	26
2855.27	32
2856.13	22
2856.98	30
2857.84	24
2858.7	25
2859.56	31
2860.41	30
2861.27	27
2862.13	26
2862.98	27
2863.84	26
2864.7	32
2865.55	31
2866.41	34
2867.27	31
2868.12	31
2868.98	22
2869.83	18
2870.69	32
2871.54	33
2872.4	31
2873.25	24
2874.11	31
2874.96	32
2875.82	31
2876.68	26
2877.53	30
2878.38	30
2879.24	35
2880.09	30
2880.95	34
2881.8	30
2882.65	36
2883.51	32
2884.36	30
2885.22	29
2886.07	32
2886.92	41
2887.77	37
2888.63	40
2889.48	37
2890.33	37
2891.19	39
2892.04	38
2892.89	40
2893.74	46
2894.6	41
2895.45	48
2896.3	45
2897.15	44
2898	52
2898.85	55
2899.71	52
2900.56	55
2901.41	55
2902.26	54
2903.11	56
2903.96	61
2904.81	58
2905.66	60
2906.51	70
2907.36	60
2908.21	65
2909.06	60
2909.91	54
2910.76	54
2911.61	52
2912.46	51
2913.31	48
2914.16	46
2915.01	47
2915.86	46
2916.71	44
2917.56	46
2918.41	45
2919.26	36
2920.1	34
2920.95	34
2921.8	33
2922.65	38
2923.5	35
2924.34	32
2925.19	33
2926.04	33
2926.89	30
2927.74	31
2928.58	30
2929.43	30
2930.28	26
2931.12	33
2931.97	30
2932.82	30
2933.66	30
2934.51	32
2935.36	28
2936.2	29
2937.05	26
2937.89	29
2938.74	33
2939.59	28
2940.43	32
2941.28	33
2942.12	29
2942.97	30
2943.81	31
2944.66	32
2945.5	32
2946.35	28
2947.19	26
2948.04	30
2948.88	30
2949.72	32
2950.57	36
2951.41	34
2952.26	34
2953.1	33
2953.94	34
2954.79	33
2955.63	32
2956.47	28
2957.32	34
2958.16	32
2959	37
2959.85	39
2960.69	40
2961.53	40
2962.37	40
2963.22	42
2964.06	36
2964.9	39
2965.74	40
2966.58	38
2967.42	42
2968.27	45
2969.11	43
2969.95	41
2970.79	38
2971.63	40
2972.47	36
2973.31	40
2974.15	39
2974.99	34
2975.83	34
2976.68	38
2977.52	36
2978.36	30
2979.2	28
2980.04	30
2980.88	32
2981.71	34
2982.55	33
2983.39	30
2984.23	27
2985.07	32
2985.91	30
2986.75	29
2987.59	30
2988.43	32
2989.27	28
2990.1	28
2990.94	30
2991.78	28
2992.62	28
2993.46	25
2994.3	33
2995.13	30
2995.97	28
2996.81	25
2997.64	25
2998.48	28
2999.32	27
