#Acq. time (s)=	3
#Accumulations=	3
#Range (cm-¹)=	100...3000
#Windows=	3
#Autofocus=	Off
#AutoExposure=	Off
#Spike filter=	Multiple accum.
#Delay time (s)=	0
#Binning=	1
#Readout mode=	Signal
#DeNoise=	Off
#ICS correction=	Off
#Dark correction=	Off
#Inst. Process=	Off
#Instrument=	LabRAM HR Evol
#Detector=	Syncerity OE
#Objective=	x100_VIS_LWD
#Grating=	600 (500nm)
#ND Filter=	25%
#Laser=	633nm_Edge
#Hole=	100.021
#Range=	Visible
#Project=	Bolus
#Sample=	A4
#Site=	stripside
#Title=	m14
#Remark=	
#Date=	03.11.2025 17:35
#Acquired=	03.11.2025 17:35:27
100.969	28
102.252	32
103.535	30
104.818	34
106.101	33
107.384	30
108.666	26
109.948	27
111.232	36
112.514	30
113.795	34
115.077	34
116.358	29
117.639	32
118.919	30
120.2	38
121.48	34
122.76	34
124.04	37
125.32	32
126.599	35
127.879	32
129.158	35
130.436	30
131.715	33
132.992	35
134.27	32
135.548	30
136.826	35
138.104	30
139.381	35
140.658	40
141.935	38
143.212	37
144.489	40
145.763	36
147.04	39
148.315	36
149.591	36
150.867	42
152.142	39
153.416	36
154.691	36
155.965	39
157.24	36
158.514	39
159.786	36
161.06	36
162.334	42
163.607	38
164.881	38
166.152	36
167.425	40
168.698	39
169.969	36
171.241	34
172.513	42
173.785	34
175.055	39
176.326	37
177.597	33
178.867	41
180.137	36
181.408	36
182.677	36
183.947	40
185.217	28
186.485	43
187.755	46
189.022	41
190.291	34
191.56	35
192.828	36
194.096	42
195.363	36
196.631	40
197.899	40
199.165	42
200.432	33
201.698	38
202.965	40
204.23	34
205.497	37
206.762	39
208.028	34
209.293	34
210.559	35
211.823	39
213.088	32
214.352	34
215.617	34
216.88	28
218.145	35
219.408	36
220.672	33
221.934	34
223.196	34
224.46	32
225.722	32
226.985	31
228.246	33
229.508	30
230.77	36
232.031	31
233.292	32
234.554	28
235.814	26
237.074	33
238.335	32
239.595	32
240.854	35
242.115	34
243.374	35
244.633	33
245.893	32
247.151	32
248.409	32
249.667	29
250.927	31
252.184	37
253.442	33
254.699	37
255.957	34
257.214	26
258.47	33
259.727	33
260.983	31
262.24	34
263.496	30
264.752	40
266.007	30
267.262	30
268.517	30
269.773	28
271.028	34
272.282	32
273.536	36
274.79	32
276.044	35
277.297	34
278.551	32
279.804	32
281.057	36
282.31	29
283.564	34
284.816	35
286.068	32
287.32	32
288.572	30
289.823	33
291.074	28
292.325	35
293.576	33
294.827	37
296.077	35
297.328	34
298.578	24
299.828	33
301.077	31
302.325	30
303.575	33
304.824	26
306.073	31
307.321	32
308.57	32
309.818	32
311.066	28
312.314	32
313.562	30
314.808	34
316.055	33
317.302	30
318.549	36
319.796	32
321.042	32
322.288	34
323.533	30
324.779	30
326.024	32
327.27	32
328.515	33
329.759	34
331.004	35
332.248	33
333.493	30
334.736	30
335.98	30
337.223	32
338.466	33
339.709	36
340.952	31
342.195	32
343.437	29
344.68	31
345.922	26
347.163	34
348.405	30
349.647	35
350.887	28
352.128	31
353.37	32
354.609	32
355.85	32
357.089	35
358.33	31
359.57	30
360.809	30
362.049	34
363.287	34
364.526	28
365.764	33
367.003	31
368.241	30
369.479	34
370.718	36
371.955	34
373.193	26
374.429	30
375.667	33
376.903	29
378.139	32
379.376	29
380.611	36
381.848	32
383.083	35
384.319	32
385.554	34
386.79	29
388.024	33
389.258	26
390.493	34
391.727	30
392.962	32
394.195	36
395.428	26
396.663	30
397.895	35
399.128	29
400.361	28
401.593	36
402.825	30
404.058	32
405.29	32
406.521	34
407.752	31
408.985	26
410.215	26
411.446	33
412.678	34
413.908	28
415.138	33
416.367	34
417.597	24
418.828	30
420.057	30
421.286	30
422.514	34
423.743	30
424.973	25
426.201	30
427.429	30
428.657	28
429.884	36
431.112	31
432.34	35
433.567	38
434.794	26
436.02	30
437.247	33
438.473	34
439.699	29
440.925	31
442.15	31
443.376	37
444.601	36
445.826	32
447.051	34
448.275	36
449.5	33
450.724	28
451.948	32
453.172	34
454.396	32
455.619	28
456.842	35
458.065	35
459.288	36
460.511	32
461.733	35
462.956	36
464.178	28
465.4	35
466.621	31
467.843	32
469.064	33
470.285	32
471.505	40
472.726	36
473.946	34
475.166	36
476.387	39
477.606	39
478.825	40
480.044	44
481.264	42
482.483	48
483.702	44
484.921	49
486.138	51
487.356	44
488.574	50
489.792	54
491.009	56
492.226	44
493.444	48
494.661	46
495.877	46
497.094	44
498.31	36
499.525	45
500.741	41
501.958	39
503.172	41
504.388	38
505.603	40
506.817	36
508.032	45
509.247	40
510.46	40
511.675	37
512.888	43
514.102	36
515.316	40
516.528	34
517.742	38
518.954	34
520.167	34
521.378	33
522.591	34
523.802	34
525.015	37
526.226	35
527.438	34
528.648	40
529.86	26
531.07	34
532.281	35
533.491	35
534.702	29
535.911	36
537.121	32
538.33	32
539.54	28
540.749	32
541.957	31
543.167	36
544.375	32
545.584	32
546.791	34
547.999	31
549.207	32
550.414	36
551.621	35
552.829	31
554.035	33
555.241	34
556.449	33
557.655	34
558.86	30
560.066	30
561.272	30
562.477	36
563.682	36
564.888	35
566.093	35
567.297	34
568.501	34
569.705	30
570.91	35
572.114	30
573.317	33
574.52	31
575.723	26
576.927	31
578.13	36
579.332	28
580.535	32
581.737	33
582.938	30
584.14	34
585.343	32
586.544	34
587.745	34
588.946	28
590.147	33
591.347	30
592.548	36
593.748	32
594.948	32
596.147	28
597.347	32
598.546	35
599.745	33
600.944	34
602.143	36
603.342	34
604.54	28
605.738	30
606.937	30
608.134	29
609.332	30
610.529	26
611.727	28
612.924	32
614.121	35
615.317	34
616.513	30
617.709	34
618.905	32
620.101	32
621.297	31
622.492	33
623.688	36
624.883	34
626.077	32
627.271	35
628.466	32
629.66	31
630.855	35
632.047	33
633.241	36
634.435	28
635.629	37
636.82	36
638.014	34
639.207	33
640.399	34
641.59	28
642.783	32
643.975	32
645.166	32
646.357	31
647.549	30
648.741	32
649.93	33
651.122	28
652.311	30
653.502	33
654.692	36
655.881	22
657.071	36
658.261	34
659.45	30
660.639	39
661.827	32
663.016	33
664.204	33
665.393	35
666.581	34
667.769	37
668.957	33
670.143	29
671.331	35
672.518	32
673.705	35
674.891	35
676.078	35
677.264	35
678.451	32
679.636	40
680.821	37
682.007	31
683.192	32
684.378	37
685.562	28
686.747	41
687.931	36
689.115	38
690.3	38
691.483	34
692.666	39
693.851	34
695.034	36
696.216	28
697.4	36
698.582	34
699.764	31
700.948	39
702.129	39
703.311	40
704.493	36
705.674	46
706.855	45
708.036	49
709.218	46
710.399	46
711.579	42
712.759	40
713.939	42
715.12	38
716.299	37
717.478	34
718.657	36
719.836	34
721.015	34
722.195	34
723.373	34
724.552	34
725.729	32
726.907	30
728.085	36
729.262	28
730.44	34
731.617	30
732.795	37
733.972	33
735.148	30
736.324	34
737.501	35
738.677	34
739.852	38
741.028	33
742.203	31
743.379	33
744.554	30
745.729	32
746.903	28
748.078	36
749.252	28
750.426	29
751.599	31
752.772	34
753.946	28
755.119	35
756.293	35
757.466	33
758.639	34
759.811	34
760.984	32
762.155	32
763.327	30
764.499	36
765.67	32
766.842	32
768.013	32
769.183	28
770.354	33
771.525	29
772.696	33
773.865	29
775.035	39
776.205	35
777.375	30
778.544	37
779.713	30
780.882	35
782.052	37
783.219	36
784.388	32
785.557	28
786.724	32
787.892	39
789.06	40
790.227	28
791.395	36
792.562	33
793.728	31
794.895	39
796.061	31
797.228	30
798.395	32
799.56	32
800.726	39
801.891	27
803.057	35
804.221	29
805.387	32
806.551	32
807.716	30
808.879	31
810.044	31
811.208	28
812.372	36
813.535	34
814.699	34
815.862	32
817.025	28
818.188	31
819.351	32
820.513	33
821.675	32
822.837	32
823.999	35
825.161	31
826.322	32
827.483	34
828.645	28
829.805	30
830.966	32
832.127	36
833.287	32
834.447	32
835.607	28
836.767	33
837.926	32
839.085	36
840.245	30
841.404	30
842.562	30
843.72	26
844.88	29
846.038	36
847.195	34
848.353	36
849.512	31
850.669	24
851.826	32
852.983	28
854.139	32
855.296	30
856.453	33
857.609	32
858.765	30
859.921	31
861.077	30
862.232	25
863.387	38
864.542	32
865.697	32
866.852	28
868.008	32
869.162	30
870.316	30
871.47	31
872.624	30
873.778	28
874.931	37
876.084	33
877.237	34
878.39	33
879.543	31
880.695	32
881.846	36
882.999	32
884.151	35
885.302	29
886.454	33
887.606	31
888.757	32
889.908	36
891.059	26
892.21	33
893.359	26
894.509	28
895.659	33
896.81	28
897.959	30
899.109	30
900.257	30
901.407	27
902.556	30
903.705	36
904.854	28
906.001	29
907.149	32
908.298	32
909.446	30
910.592	25
911.74	32
912.888	33
914.034	31
915.181	29
916.328	32
917.473	33
918.62	25
919.766	38
920.911	30
922.058	30
923.204	33
924.348	28
925.494	35
926.638	30
927.783	35
928.928	28
930.072	28
931.216	27
932.36	25
933.504	30
934.647	31
935.791	29
936.933	33
938.077	30
939.219	31
940.363	32
941.504	27
942.647	24
943.789	31
944.932	34
946.073	29
947.215	33
948.356	30
949.498	28
950.638	32
951.778	30
952.92	33
954.06	29
955.199	37
956.34	30
957.479	26
958.62	30
959.759	32
960.898	32
962.038	32
963.176	27
964.315	32
965.453	28
966.592	27
967.73	31
968.867	26
970.006	30
971.144	31.5
972.281	33
973.418	35
974.554	29
975.692	28
976.829	26
977.965	35
979.101	30
980.237	28
981.374	30
982.509	39
983.645	31
984.78	26
985.915	27
987.05	30
988.184	32
989.319	24
990.453	32
991.589	30
992.722	32
993.856	30
994.99	29
996.123	29
997.257	24
998.39	31
999.523	30
1000.66	33
1001.79	28
1002.92	26
1004.05	30
1005.18	26
1006.32	32
1007.45	31
1008.58	32
1009.71	26
1010.84	28
1011.97	28
1013.1	29
1014.23	30
1015.36	30
1016.49	27
1017.62	33
1018.75	26
1019.88	25
1021.01	28
1022.14	32
1023.27	30
1024.4	32
1025.53	32
1026.66	35
1027.79	31
1028.91	24
1030.04	30
1031.17	30
1032.3	28
1033.42	28
1034.55	32
1035.68	30
1036.81	25
1037.93	30
1039.06	30
1040.18	28
1041.31	31
1042.44	26
1043.56	28
1044.69	29
1045.81	33
1046.94	28
1048.06	36
1049.19	31
1050.31	29
1051.44	29
1052.56	30
1053.69	32
1054.81	30
1055.93	30
1057.06	30
1058.18	33
1059.3	25
1060.43	32
1061.55	30
1062.67	26
1063.79	32
1064.92	32
1066.04	28
1067.16	34
1068.28	30
1069.4	32
1070.52	30
1071.65	30
1072.77	28
1073.89	28
1075.01	30
1076.13	26
1077.25	34
1078.37	26
1079.49	31
1080.61	33
1081.73	28
1082.85	30
1083.97	24
1085.09	27
1086.2	26
1087.32	31
1088.44	26
1089.56	34
1090.68	33
1091.8	24
1092.91	32
1094.03	27
1095.15	31
1096.26	32
1097.38	33
1098.5	28
1099.61	31
1100.73	27
1101.85	36
1102.96	28
1104.08	30
1105.19	28
1106.31	38
1107.43	26
1108.54	33
1109.66	26
1110.77	28
1111.88	33
1113	26
1114.11	28
1115.23	33
1116.34	32
1117.46	27
1118.57	30
1119.68	30
1120.8	28
1121.91	24
1123.02	26
1124.13	27
1125.25	32
1126.36	28
1127.47	29
1128.58	36
1129.69	27
1130.8	28
1131.92	31
1133.03	28
1134.14	30
1135.25	31
1136.36	24
1137.47	27
1138.58	32
1139.69	27
1140.8	31
1141.91	30
1143.02	28
1144.13	24
1145.24	29
1146.35	30
1147.46	30
1148.56	29
1149.67	30
1150.78	27
1151.89	28
1153	31
1154.1	30
1155.21	28
1156.32	32
1157.43	31
1158.53	26
1159.64	30
1160.75	28
1161.85	30
1162.96	28
1164.07	32
1165.17	34
1166.28	32
1167.38	26
1168.49	32
1169.59	32
1170.7	30
1171.8	26
1172.91	32
1174.01	24
1175.12	24
1176.22	26
1177.32	28
1178.43	29
1179.53	24
1180.64	28
1181.74	28
1182.84	31
1183.94	31
1185.05	30
1186.15	36
1187.25	25
1188.35	26
1189.46	30
1190.56	27
1191.66	29
1192.76	31
1193.86	32
1194.96	25
1196.06	26.0245
1197.16	25.9989
1198.26	27.9764
1199.37	29.0496
1200.47	28.0397
1201.57	26.9951
1202.67	29.6416
1203.77	28.677
1204.86	24.2552
1205.96	27.6564
1207.06	30.4003
1208.16	28.0544
1209.26	24.4275
1210.36	28.8697
1211.46	26.498
1212.56	26.7593
1213.65	27.3304
1214.75	26.1673
1215.85	28.8186
1216.95	27.6334
1218.04	28.9847
1219.14	29.3545
1220.24	29.9683
1221.33	25.5256
1222.43	28.3494
1223.53	28.2006
1224.62	28.8648
1225.72	28
1226.82	28.9641
1227.91	29.7506
1229.01	30.1029
1230.1	32.1471
1231.2	29.0973
1232.29	29.0913
1233.39	28.4502
1234.48	29.0985
1235.58	28.1473
1236.67	29.1998
1237.77	28.3064
1238.86	28.3873
1239.95	28.2469
1241.05	26.358
1242.14	25.4297
1243.23	28.2164
1244.33	27.1526
1245.42	28.2387
1246.51	27.0882
1247.61	29.6326
1248.7	28.6922
1249.79	29.4559
1250.88	29.9902
1251.97	31.4951
1253.07	30.3504
1254.16	32.3581
1255.25	29.5669
1256.34	24.6403
1257.43	29.0092
1258.52	25.9216
1259.61	27.4463
1260.7	25.75
1261.79	27.7218
1262.88	28.7368
1263.97	31.2213
1265.06	27.947
1266.15	30.2675
1267.24	28.9856
1268.33	28.0882
1269.42	26.4887
1270.51	29.1663
1271.6	28.8066
1272.68	31.8934
1273.77	27.8415
1274.86	26.6341
1275.95	22.3679
1277.04	28.8088
1278.12	27.0671
1279.21	26.75
1280.3	26.0983
1281.39	29.4608
1282.47	28.6334
1283.56	28.6991
1284.65	27.2608
1285.73	26.8166
1286.82	27.0467
1287.91	31.1791
1288.99	30.4844
1290.08	30.8727
1291.16	27.7157
1292.25	28.115
1293.33	29.5098
1294.42	29.066
1295.5	25.1659
1296.59	26.3869
1297.67	24.7406
1298.76	26.8217
1299.84	25.9167
1300.92	23.207
1302.01	29.3122
1303.09	25.3008
1304.17	27.8767
1305.26	25.6747
1306.34	22.5034
1307.34	28
1308.43	30
1309.52	28
1310.61	26
1311.7	28
1312.78	29
1313.87	30
1314.96	26
1316.04	28
1317.13	26
1318.22	24
1319.3	30
1320.39	26
1321.48	29
1322.56	27
1323.65	28
1324.73	26
1325.82	24
1326.9	30
1327.99	26
1329.07	29
1330.16	29
1331.24	25
1332.33	28
1333.41	31
1334.5	28
1335.58	27
1336.66	32
1337.75	22
1338.83	28
1339.91	32
1341	31
1342.08	31
1343.16	30
1344.24	31
1345.33	26
1346.41	26
1347.49	30
1348.57	30
1349.65	26
1350.74	32
1351.82	23
1352.9	29
1353.98	24
1355.06	31
1356.14	29
1357.22	36
1358.3	30
1359.38	32
1360.46	28
1361.54	28
1362.62	28
1363.7	31
1364.78	27
1365.86	33
1366.94	24
1368.02	28
1369.09	24
1370.17	26
1371.25	28
1372.33	30
1373.41	26
1374.48	26
1375.56	28
1376.64	24
1377.72	28
1378.79	33
1379.87	26
1380.95	28
1382.02	29
1383.1	26
1384.17	26
1385.25	25
1386.33	26
1387.4	24
1388.48	33
1389.55	34
1390.63	30
1391.7	30
1392.78	30
1393.85	29
1394.93	27
1396	30
1397.07	32
1398.15	30
1399.22	26
1400.3	30
1401.37	34
1402.44	20
1403.52	24
1404.59	29
1405.66	30
1406.73	32
1407.81	30
1408.88	30
1409.95	34
1411.02	26
1412.09	36
1413.17	33
1414.24	30
1415.31	30
1416.38	30
1417.45	31
1418.52	33
1419.59	26
1420.66	30
1421.73	26
1422.8	25
1423.87	32
1424.94	31
1426.01	29
1427.08	29
1428.15	33
1429.22	28
1430.29	33
1431.35	30
1432.42	32
1433.49	26
1434.56	30
1435.63	28
1436.69	30
1437.76	30
1438.83	28
1439.9	26
1440.96	30
1442.03	30
1443.1	33
1444.17	34
1445.23	22
1446.3	28
1447.36	29
1448.43	30
1449.49	24
1450.56	24
1451.63	30
1452.69	34
1453.76	30
1454.82	31
1455.89	30
1456.95	22
1458.01	24
1459.08	28
1460.14	28
1461.21	29
1462.27	30
1463.34	30
1464.4	24
1465.46	30
1466.52	26
1467.59	28
1468.65	27
1469.71	30
1470.77	29
1471.84	30
1472.9	26
1473.96	27
1475.02	23
1476.08	31
1477.15	24
1478.21	29
1479.27	26
1480.33	27
1481.39	25
1482.45	34
1483.51	31
1484.57	27
1485.63	26
1486.69	28
1487.75	30
1488.81	26
1489.87	32
1490.93	32
1491.99	29
1493.05	28
1494.1	35
1495.16	29
1496.22	31
1497.28	28
1498.34	22
1499.4	31
1500.45	28
1501.51	27
1502.57	29
1503.63	24
1504.68	27
1505.74	26
1506.8	31
1507.85	28
1508.91	31
1509.97	30
1511.02	26
1512.08	32
1513.13	34
1514.19	28
1515.24	34
1516.3	33
1517.35	30
1518.41	22
1519.46	29
1520.52	31
1521.57	26
1522.63	25
1523.68	29
1524.73	30
1525.79	27
1526.84	28
1527.9	28
1528.95	27
1530	31
1531.05	28
1532.11	32
1533.16	30
1534.21	28
1535.26	30
1536.32	31
1537.37	31
1538.42	34
1539.47	29
1540.52	28
1541.57	31
1542.63	30
1543.68	30
1544.73	28
1545.78	31
1546.83	28
1547.88	29
1548.93	28
1549.98	34
1551.03	31
1552.08	28
1553.13	28
1554.18	29
1555.23	22
1556.27	24
1557.32	26
1558.37	33
1559.42	30
1560.47	29
1561.52	28
1562.56	28
1563.61	30
1564.66	26
1565.71	31
1566.75	31
1567.8	31
1568.85	25
1569.9	29
1570.94	30
1571.99	30
1573.03	29
1574.08	30
1575.13	34
1576.17	34
1577.22	31
1578.26	28
1579.31	29
1580.35	27
1581.4	24
1582.44	28
1583.49	29
1584.53	28
1585.58	26
1586.62	30
1587.66	27
1588.71	30
1589.75	28
1590.8	28
1591.84	24
1592.88	27
1593.92	25
1594.97	26
1596.01	26
1597.05	33
1598.1	29
1599.14	34
1600.18	26
1601.22	28
1602.26	31
1603.3	30
1604.35	32
1605.39	29
1606.43	24
1607.47	32
1608.51	30
1609.55	28
1610.59	31
1611.63	29
1612.67	32
1613.71	28
1614.75	26
1615.79	30
1616.83	24
1617.87	28
1618.91	28
1619.95	30
1620.99	28
1622.02	30
1623.06	28
1624.1	29
1625.14	27
1626.18	28
1627.21	30
1628.25	28
1629.29	27
1630.33	27
1631.36	29
1632.4	28
1633.44	29
1634.48	30
1635.51	31
1636.55	31
1637.58	26
1638.62	29
1639.66	29
1640.69	32
1641.73	28
1642.76	28
1643.8	24
1644.83	30
1645.87	36
1646.9	30
1647.94	25
1648.97	33
1650	26
1651.04	28
1652.07	23
1653.11	31
1654.14	24
1655.17	27
1656.21	26
1657.24	26
1658.27	30
1659.31	31
1660.34	34
1661.37	21
1662.4	32
1663.43	27
1664.47	32
1665.5	22
1666.53	29
1667.56	29
1668.59	30
1669.62	34
1670.66	30
1671.69	30
1672.72	28
1673.75	29
1674.78	28
1675.81	28
1676.84	34
1677.87	30
1678.9	29
1679.93	22
1680.96	32
1681.98	27
1683.01	30
1684.04	32
1685.07	28
1686.1	30
1687.13	26
1688.16	26
1689.18	26
1690.21	27
1691.24	28
1692.27	38
1693.3	32
1694.32	29
1695.35	31
1696.38	25
1697.4	33
1698.43	28
1699.46	26
1700.48	29
1701.51	24
1702.54	24
1703.56	28
1704.59	35
1705.61	26
1706.64	27
1707.66	24
1708.69	30
1709.71	33
1710.74	28
1711.76	27
1712.79	32
1713.81	28
1714.83	28
1715.86	24
1716.88	30
1717.91	33
1718.93	27
1719.95	24
1720.98	24
1722	23
1723.02	28
1724.04	29
1725.07	36
1726.09	31
1727.11	28
1728.13	30
1729.15	31
1730.18	30
1731.2	29
1732.22	26
1733.24	30
1734.26	28
1735.28	26
1736.3	26
1737.32	26
1738.34	20
1739.36	28
1740.38	30
1741.4	24
1742.42	22
1743.44	29
1744.46	34
1745.48	28
1746.5	32
1747.52	25
1748.54	27
1749.56	26
1750.58	31
1751.6	27
1752.61	33
1753.63	25
1754.65	32
1755.67	32
1756.68	28
1757.7	26
1758.72	32
1759.74	33
1760.75	27
1761.77	23
1762.79	28
1763.8	33
1764.82	29
1765.83	29
1766.85	29
1767.87	32
1768.88	20
1769.9	26
1770.91	24
1771.93	27
1772.94	30
1773.96	26
1774.97	27
1775.99	24
1777	28
1778.02	28
1779.03	28
1780.04	24
1781.06	24
1782.07	29
1783.09	24
1784.1	29
1785.11	28
1786.13	29
1787.14	28
1788.15	28
1789.16	26
1790.18	32
1791.19	28
1792.2	32
1793.21	29
1794.22	29
1795.23	29
1796.25	24
1797.26	30
1798.27	30
1799.28	31
1800.29	30
1801.3	32
1802.31	31
1803.32	32
1804.33	31
1805.34	30
1806.35	27
1807.36	32
1808.37	30
1809.38	33
1810.39	26
1811.4	27
1812.41	28
1813.42	30
1814.42	28
1815.43	30
1816.44	26
1817.45	28
1818.46	30
1819.47	26
1820.47	34
1821.48	27
1822.49	27
1823.49	26
1824.5	28
1825.51	28
1826.52	28
1827.52	35
1828.53	28
1829.53	24
1830.54	25
1831.55	29
1832.55	25
1833.56	36
1834.56	29
1835.57	30
1836.57	28
1837.58	28
1838.58	31
1839.59	32
1840.59	30
1841.6	26
1842.6	30
1843.61	29
1844.61	28
1845.61	27
1846.62	30
1847.62	27
1848.62	32
1849.63	30
1850.63	30
1851.63	24
1852.64	26
1853.64	28
1854.64	29
1855.64	31
1856.64	30
1857.65	22
1858.65	20
1859.65	33
1860.65	27
1861.65	27
1862.65	34
1863.65	29
1864.66	26
1865.66	25
1866.66	34
1867.66	30
1868.66	30
1869.66	31
1870.66	28
1871.66	28
1872.66	36
1873.66	30
1874.66	26
1875.65	28
1876.65	28
1877.65	28
1878.65	26
1879.65	24
1880.65	29
1881.65	27
1882.64	28
1883.64	26
1884.64	25
1885.64	29
1886.63	32
1887.63	30
1888.63	25
1889.63	28
1890.62	24
1891.62	28
1892.62	32
1893.61	30
1894.61	28
1895.6	26
1896.6	30
1897.6	27
1898.59	31
1899.59	27
1900.58	29
1901.58	30
1902.57	32
1903.57	28
1904.56	30
1905.56	26
1906.55	26
1907.54	26
1908.54	24
1909.53	30
1910.53	28
1911.52	29
1912.51	26
1913.51	26
1914.5	29
1915.49	28
1916.49	28
1917.48	28
1918.47	27
1919.46	27
1920.46	30
1921.45	25
1922.44	27
1923.43	34
1924.42	30
1925.41	26
1926.41	23
1927.4	29
1928.39	28
1929.38	30
1930.37	32
1931.36	28
1932.35	27
1933.34	28
1934.33	30
1935.32	35
1936.31	29
1937.3	27
1938.29	34
1939.28	28
1940.27	26
1941.26	26
1942.24	26
1943.23	26
1944.22	28
1945.21	29
1946.2	24
1947.19	24
1948.17	26
1949.16	24
1950.15	28
1951.14	31
1952.12	22
1953.11	29
1954.1	24
1955.09	27
1956.07	29
1957.06	26
1958.05	30
1959.03	25
1960.02	36
1961	26
1961.99	28
1962.98	28
1963.96	25
1964.95	22
1965.93	29
1966.92	24
1967.9	30
1968.89	26
1969.87	31
1970.85	28
1971.84	26
1972.82	26
1973.81	32
1974.79	29
1975.78	26
1976.76	23
1977.74	26
1978.73	30
1979.71	24
1980.69	28
1981.67	29
1982.66	28
1983.64	27
1984.62	23
1985.6	26
1986.59	26
1987.57	30
1988.55	26
1989.53	27
1990.51	30
1991.49	26
1992.47	24
1993.45	26
1994.44	30
1995.42	28
1996.4	34
1997.38	26
1998.36	31
1999.34	26
2000.32	24
2001.3	24
2002.28	26
2003.26	25
2004.24	30
2005.22	26
2006.19	30
2007.17	29
2008.15	35
2009.13	30
2010.11	26
2011.09	27
2012.06	31
2013.04	28
2014.02	28
2015	28
2015.98	31
2016.95	31
2017.93	27
2018.91	27
2019.88	29
2020.86	30
2021.84	26
2022.81	31
2023.79	27
2024.77	30
2025.74	26
2026.72	24
2027.69	25
2028.67	34
2029.65	28
2030.62	26
2031.6	30
2032.57	24
2033.55	25
2034.52	28
2035.5	28
2036.47	25
2037.44	22
2038.42	27
2039.39	26
2040.36	29
2041.34	22
2042.31	23
2043.29	27
2044.26	26
2045.23	26
2046.2	24
2047.18	31
2048.15	32
2049.12	29
2050.09	20
2051.07	28
2052.04	29
2053.01	32
2053.98	27
2054.95	26
2055.93	30
2056.9	28
2057.87	29
2058.84	27
2059.81	26
2060.78	26
2061.75	28
2062.72	28
2063.69	29
2064.66	29
2065.63	31
2066.6	27
2067.57	30
2068.54	32
2069.51	26
2070.48	29
2071.45	30
2072.42	26
2073.38	29
2074.35	24
2075.32	24
2076.29	26
2077.26	27
2078.23	30
2079.19	28
2080.16	29
2081.13	26
2082.1	28
2083.06	24
2084.03	32
2085	29
2085.96	24
2086.93	24
2087.9	22
2088.86	30
2089.83	28
2090.8	27
2091.76	26
2092.73	22
2093.69	25
2094.66	27
2095.62	27
2096.59	25
2097.55	21
2098.52	24
2099.48	29
2100.45	29
2101.41	28
2102.38	32
2103.34	26
2104.31	22
2105.27	22
2106.23	27
2107.2	26
2108.16	28
2109.12	26
2110.09	26
2111.05	25
2112.01	29
2112.98	29
2113.94	26
2114.9	29
2115.86	29
2116.82	24
2117.79	24
2118.75	30
2119.71	22
2120.67	29
2121.63	27
2122.59	22
2123.55	29
2124.52	26
2125.48	26
2126.44	24
2127.4	22
2128.36	21
2129.32	28
2130.28	32
2131.24	26
2132.2	27
2133.16	30
2134.12	27
2135.08	26
2136.04	28
2136.99	28
2137.95	27
2138.91	26
2139.87	28
2140.83	28
2141.79	22
2142.75	24
2143.7	27
2144.66	28
2145.62	27.9627
2146.58	23.0227
2147.53	24.1324
2148.49	26.8768
2149.45	27.9932
2150.41	25.9923
2151.36	24.0127
2152.32	30.6926
2153.27	27.6759
2154.23	29.6468
2155.19	29.9762
2156.14	28.535
2157.1	25.5367
2158.06	22.8023
2159.01	28.2732
2159.97	27.8319
2160.92	27.8726
2161.88	24.0037
2162.83	26.8176
2163.79	24.1912
2164.74	23.6009
2165.7	25.992
2166.65	29.5526
2167.61	24.6547
2168.56	27.0153
2169.51	29.25
2170.47	26.9608
2171.42	23.6953
2172.38	26.8321
2173.33	27.9425
2174.28	25.8971
2175.24	26.148
2176.19	28.2149
2177.14	28.6945
2178.09	26.7122
2179.05	26.9724
2180	26.3578
2180.95	21.571
2181.9	25.8676
2182.86	24.961
2183.81	25.3879
2184.76	21.7242
2185.71	28.1267
2186.66	22.7133
2187.61	25.4363
2188.57	25.0037
2189.52	27.4775
2190.47	23.9311
2191.42	26.6021
2192.37	22.4411
2193.32	27.6231
2194.27	28.8363
2195.22	26.1447
2196.17	25.7045
2197.12	26.9052
2198.07	25.6542
2199.02	26.334
2199.97	24
2200.92	23.5061
2201.87	25.8472
2202.82	26.6294
2203.76	25.8961
2204.71	28.3778
2205.66	26.2589
2206.61	23.7395
2207.56	26.3412
2208.51	27.1487
2209.45	25.2941
2210.4	28.3525
2211.35	26.1855
2212.3	24.5856
2213.24	25.8667
2214.19	25.9056
2215.14	26
2216.09	24.9477
2217.03	26.6265
2217.98	26.8151
2218.93	25.3642
2219.87	24.4608
2220.82	26.1621
2221.77	27.5784
2222.71	23.9168
2223.66	24.5762
2224.6	27.1025
2225.55	26.7225
2226.49	23.7793
2227.44	22
2228.38	24.8061
2229.33	26.8566
2230.27	25.8194
2231.22	26.1286
2232.16	30.3726
2233.11	30.1676
2234.05	27.0414
2235	25.0803
2235.94	23.8725
2236.88	25.2004
2237.83	26.6618
2238.77	24.7368
2239.71	24.7982
2240.66	25.424
2241.6	25.5618
2242	26
2242.95	26
2243.9	30
2244.84	24
2245.79	20
2246.74	28
2247.69	22
2248.63	28
2249.58	20
2250.53	28
2251.47	24
2252.42	31
2253.37	25
2254.31	25
2255.26	26
2256.2	27
2257.15	30
2258.1	28
2259.04	26
2259.99	26
2260.93	31
2261.88	24
2262.82	18
2263.77	23
2264.71	22
2265.65	24
2266.6	25
2267.54	22
2268.49	28
2269.43	32
2270.38	28
2271.32	29
2272.26	29
2273.21	28
2274.15	27
2275.09	32
2276.04	27
2276.98	26
2277.92	24
2278.86	23
2279.81	23
2280.75	24
2281.69	24
2282.63	27
2283.57	26
2284.52	28
2285.46	25
2286.4	31
2287.34	24
2288.28	20
2289.22	32
2290.16	25
2291.1	32
2292.04	31
2292.98	28
2293.93	26
2294.86	26
2295.8	20
2296.74	22
2297.69	28
2298.62	27
2299.56	30
2300.5	26
2301.44	24
2302.38	24
2303.32	24
2304.26	28
2305.2	23
2306.14	20
2307.07	26
2308.01	26
2308.95	27
2309.89	28
2310.83	32
2311.76	28
2312.7	27
2313.64	27
2314.58	30
2315.51	26
2316.45	30
2317.39	24
2318.32	23
2319.26	26
2320.2	29
2321.13	29
2322.07	27
2323	32
2323.94	26
2324.88	24
2325.81	27
2326.75	24
2327.68	25
2328.62	26
2329.55	26
2330.49	24
2331.42	22
2332.36	22
2333.29	29
2334.22	22
2335.16	22
2336.09	26
2337.03	24
2337.96	26
2338.89	29
2339.83	32
2340.76	24
2341.69	22
2342.63	32
2343.56	28
2344.49	24
2345.43	24
2346.36	29
2347.29	26
2348.22	29
2349.15	31
2350.09	30
2351.02	27
2351.95	24
2352.88	26
2353.81	22
2354.74	24
2355.67	29
2356.61	30
2357.54	24
2358.47	23
2359.4	26
2360.33	28
2361.26	28
2362.19	24
2363.12	32
2364.05	27
2364.98	25
2365.91	26
2366.84	32
2367.77	27
2368.7	26
2369.62	21
2370.55	25
2371.48	22
2372.41	26
2373.34	26
2374.27	30
2375.2	30
2376.12	28
2377.05	26
2377.98	26
2378.91	22
2379.83	14
2380.76	24
2381.69	24
2382.62	29
2383.54	25
2384.47	24
2385.4	20
2386.32	26
2387.25	28
2388.18	28
2389.1	25
2390.03	29
2390.95	28
2391.88	27
2392.81	24
2393.73	31
2394.66	24
2395.58	24
2396.51	28
2397.43	29
2398.36	29
2399.28	25
2400.2	28
2401.13	33
2402.05	27
2402.98	32
2403.9	27
2404.83	25
2405.75	22
2406.67	26
2407.6	25
2408.52	23
2409.44	29
2410.37	29
2411.29	26
2412.21	26
2413.13	29
2414.06	26
2414.98	28
2415.9	27
2416.82	28
2417.74	27
2418.67	28
2419.59	26
2420.51	27
2421.43	26
2422.35	23
2423.27	26
2424.19	28
2425.11	27
2426.03	31
2426.96	20
2427.88	28
2428.8	24
2429.72	24
2430.64	24
2431.56	31
2432.48	26
2433.39	26
2434.31	26
2435.23	31
2436.15	26
2437.07	31
2437.99	28
2438.91	24
2439.83	34
2440.75	24
2441.67	26
2442.58	29
2443.5	26
2444.42	27
2445.34	29
2446.26	26
2447.17	26
2448.09	26
2449.01	30
2449.92	25
2450.84	30
2451.76	23
2452.68	30
2453.59	30
2454.51	33
2455.42	24
2456.34	26
2457.26	26
2458.17	22
2459.09	26
2460	29
2460.92	20
2461.83	25
2462.75	23
2463.66	28
2464.58	25
2465.49	29
2466.41	27
2467.32	28
2468.24	32
2469.15	30
2470.07	26
2470.98	32
2471.89	26
2472.81	23
2473.72	24
2474.64	26
2475.55	26
2476.46	26
2477.37	25
2478.29	32
2479.2	27
2480.11	31
2481.03	30
2481.94	20
2482.85	27
2483.76	28
2484.67	34
2485.59	23
2486.5	28
2487.41	24
2488.32	26
2489.23	26
2490.14	28
2491.05	26
2491.97	30
2492.88	23
2493.79	27
2494.7	24
2495.61	24
2496.52	24
2497.43	26
2498.34	26
2499.25	22
2500.16	24
2501.07	26
2501.98	28
2502.89	23
2503.79	28
2504.7	24
2505.61	24
2506.52	27
2507.43	26
2508.34	26
2509.25	26
2510.16	26
2511.06	24
2511.97	24
2512.88	26
2513.79	28
2514.69	28
2515.6	26
2516.51	32
2517.42	32
2518.32	27
2519.23	22
2520.14	24
2521.04	24
2521.95	26
2522.86	20
2523.76	27
2524.67	28
2525.57	27
2526.48	28
2527.39	22
2528.29	26
2529.2	22
2530.1	32
2531.01	30
2531.91	33
2532.82	31
2533.72	28
2534.63	24
2535.53	26
2536.44	26
2537.34	30
2538.24	26
2539.15	28
2540.05	29
2540.96	28
2541.86	26
2542.76	28
2543.67	33
2544.57	26
2545.47	25
2546.37	25
2547.28	30
2548.18	24
2549.08	30
2549.99	28
2550.89	28
2551.79	22
2552.69	28
2553.59	25
2554.49	32
2555.4	24
2556.3	30
2557.2	31
2558.1	26
2559	24
2559.9	25
2560.8	28
2561.7	28
2562.6	27
2563.5	24
2564.4	26
2565.3	25
2566.2	24
2567.1	22
2568	31
2568.9	30
2569.8	26
2570.7	30
2571.6	30
2572.5	29
2573.4	29
2574.3	28
2575.2	27
2576.1	24
2576.99	29
2577.89	27
2578.79	31
2579.69	28
2580.59	22
2581.48	28
2582.38	26
2583.28	26
2584.18	24
2585.07	29
2585.97	27
2586.87	26
2587.76	27
2588.66	29
2589.56	27
2590.45	30
2591.35	28
2592.25	24
2593.14	28
2594.04	24
2594.93	27
2595.83	28
2596.73	25
2597.62	25
2598.52	27
2599.41	27
2600.31	31
2601.2	30
2602.1	27
2602.99	32
2603.88	29
2604.78	28
2605.67	22
2606.57	24
2607.46	26
2608.35	30
2609.25	20
2610.14	26
2611.03	24
2611.93	22
2612.82	28
2613.71	27
2614.61	26
2615.5	25
2616.39	31
2617.29	28
2618.18	27
2619.07	23
2619.96	29
2620.85	25
2621.75	25
2622.64	28
2623.53	24
2624.42	22
2625.31	30
2626.2	22
2627.09	28
2627.98	22
2628.88	24
2629.77	20
2630.66	27
2631.55	28
2632.44	24
2633.33	27
2634.22	28
2635.11	26
2636	26
2636.89	24
2637.78	28
2638.66	28
2639.55	28
2640.44	27
2641.33	25
2642.22	26
2643.11	24
2644	26
2644.89	20
2645.78	27
2646.66	28
2647.55	28
2648.44	26
2649.33	28
2650.21	25
2651.1	27
2651.99	30
2652.88	27
2653.76	30
2654.65	26
2655.54	30
2656.42	28
2657.31	29
2658.2	30
2659.08	26
2659.97	24
2660.86	30
2661.74	28
2662.63	27
2663.51	25
2664.4	30
2665.29	16
2666.17	26
2667.06	30
2667.94	30
2668.83	28
2669.71	27
2670.6	30
2671.48	24
2672.36	27
2673.25	28
2674.13	22
2675.02	30
2675.9	28
2676.78	27
2677.67	28
2678.55	28
2679.43	27
2680.32	26
2681.2	27
2682.08	31
2682.97	20
2683.85	32
2684.73	30
2685.61	30
2686.5	31
2687.38	28
2688.26	29
2689.14	26
2690.03	33
2690.91	22
2691.79	28
2692.67	32
2693.55	25
2694.43	32
2695.31	24
2696.19	30
2697.08	28
2697.96	25
2698.84	24
2699.72	26
2700.6	30
2701.48	24
2702.36	28
2703.24	25
2704.12	22
2705	26
2705.88	28
2706.76	30
2707.64	28
2708.51	29
2709.39	24
2710.27	24
2711.15	24
2712.03	33
2712.91	28
2713.79	29
2714.67	24
2715.54	26
2716.42	28
2717.3	31
2718.18	20
2719.05	24
2719.93	26
2720.81	23
2721.69	32
2722.56	28
2723.44	28
2724.32	25
2725.19	26
2726.07	27
2726.95	25
2727.82	25
2728.7	22
2729.58	28
2730.45	27
2731.33	28
2732.2	26
2733.08	27
2733.95	32
2734.83	22
2735.7	28
2736.58	23
2737.45	26
2738.33	27
2739.2	24
2740.08	26
2740.95	26
2741.83	29
2742.7	26
2743.58	30
2744.45	32
2745.32	22
2746.2	26
2747.07	22
2747.94	27
2748.82	26
2749.69	26
2750.56	31
2751.44	27
2752.31	20
2753.18	30
2754.05	25
2754.93	30
2755.8	27
2756.67	29
2757.54	28
2758.42	30
2759.29	19
2760.16	22
2761.03	30
2761.9	26
2762.77	22
2763.64	27
2764.51	30
2765.38	29
2766.26	28
2767.13	28
2768	26
2768.87	28
2769.74	25
2770.61	24
2771.48	20
2772.35	26
2773.22	30
2774.09	29
2774.96	28
2775.83	32
2776.7	24
2777.56	32
2778.43	26
2779.3	26
2780.17	24
2781.04	30
2781.91	31
2782.78	28
2783.64	30
2784.51	29
2785.38	32
2786.25	24
2787.12	32
2787.98	24
2788.85	27
2789.72	30
2790.59	28
2791.45	28
2792.32	28
2793.19	25
2794.05	27
2794.92	29
2795.79	28
2796.65	26
2797.52	32
2798.38	33
2799.25	24
2800.12	28
2800.98	30
2801.85	31
2802.71	26
2803.58	26
2804.44	26
2805.31	26
2806.17	26
2807.04	29
2807.9	27
2808.77	30
2809.63	29
2810.5	31
2811.36	26
2812.22	29
2813.09	33
2813.95	30
2814.82	28
2815.68	29
2816.54	29
2817.41	30
2818.27	26
2819.13	32
2820	22
2820.86	28
2821.72	28
2822.58	26
2823.45	24
2824.31	24
2825.17	31
2826.03	30
2826.9	24
2827.76	30
2828.62	25
2829.48	25
2830.34	28
2831.2	22
2832.06	32
2832.92	27
2833.79	33
2834.65	27
2835.51	29
2836.37	30
2837.23	29
2838.09	28
2838.95	29
2839.81	28
2840.67	28
2841.53	28
2842.39	26
2843.25	22
2844.11	23
2844.97	28
2845.83	26
2846.68	27
2847.54	26
2848.4	27
2849.26	28
2850.12	18
2850.98	30
2851.84	32
2852.69	30
2853.55	25
2854.41	25
2855.27	23
2856.13	28
2856.98	29
2857.84	26
2858.7	26
2859.56	31
2860.41	27
2861.27	30
2862.13	31
2862.98	32
2863.84	26
2864.7	34
2865.55	28
2866.41	29
2867.27	32
2868.12	28
2868.98	31
2869.83	30
2870.69	30
2871.54	26
2872.4	34
2873.25	29
2874.11	26
2874.96	28
2875.82	22
2876.68	26
2877.53	34
2878.38	30
2879.24	33
2880.09	34
2880.95	32
2881.8	30
2882.65	30
2883.51	32
2884.36	36
2885.22	28
2886.07	37
2886.92	30
2887.77	36
2888.63	28
2889.48	38
2890.33	31
2891.19	36
2892.04	38
2892.89	36
2893.74	40
2894.6	43
2895.45	41
2896.3	41
2897.15	40
2898	46
2898.85	48
2899.71	49
2900.56	40
2901.41	50
2902.26	54
2903.11	48
2903.96	56
2904.81	63
2905.66	62
2906.51	61
2907.36	59
2908.21	56
2909.06	54
2909.91	50
2910.76	52
2911.61	46
2912.46	44
2913.31	48
2914.16	44
2915.01	47
2915.86	47
2916.71	39
2917.56	36
2918.41	37
2919.26	40
2920.1	36
2920.95	34
2921.8	34
2922.65	30
2923.5	32
2924.34	33
2925.19	33
2926.04	29
2926.89	29
2927.74	29
2928.58	37
2929.43	30
2930.28	33
2931.12	33
2931.97	32
2932.82	31
2933.66	29
2934.51	29
2935.36	30
2936.2	30
2937.05	32
2937.89	28
2938.74	24
2939.59	31
2940.43	32
2941.28	32
2942.12	32
2942.97	28
2943.81	26
2944.66	32
2945.5	30
2946.35	30
2947.19	30
2948.04	31
2948.88	24
2949.72	30
2950.57	35
2951.41	30
2952.26	29
2953.1	33
2953.94	31
2954.79	29
2955.63	32
2956.47	33
2957.32	34
2958.16	34
2959	40
2959.85	32
2960.69	34
2961.53	34
2962.37	40
2963.22	40
2964.06	34
2964.9	38
2965.74	34
2966.58	43
2967.42	38
2968.27	42
2969.11	35
2969.95	35
2970.79	37
2971.63	35
2972.47	33
2973.31	29
2974.15	33
2974.99	32
2975.83	34
2976.68	31
2977.52	30
2978.36	37
2979.2	33
2980.04	32
2980.88	32
2981.71	28
2982.55	26
2983.39	30
2984.23	31
2985.07	28
2985.91	32
2986.75	24
2987.59	27
2988.43	27
2989.27	22
2990.1	26
2990.94	31
2991.78	31
2992.62	30
2993.46	24
2994.3	24
2995.13	29
2995.97	28
2996.81	28
2997.64	22
2998.48	30
2999.32	28
