#Acq. time (s)=	3
#Accumulations=	3
#Range (cm-¹)=	100...3000
#Windows=	3
#Autofocus=	Off
#AutoExposure=	Off
#Spike filter=	Multiple accum.
#Delay time (s)=	0
#Binning=	1
#Readout mode=	Signal
#DeNoise=	Off
#ICS correction=	Off
#Dark correction=	Off
#Inst. Process=	Off
#Instrument=	LabRAM HR Evol
#Detector=	Syncerity OE
#Objective=	x100_VIS_LWD
#Grating=	600 (500nm)
#ND Filter=	25%
#Laser=	633nm_Edge
#Hole=	100.021
#Range=	Visible
#Project=	Bolus
#Sample=	A4
#Site=	stripside
#Title=	m16
#Remark=	
#Date=	03.11.2025 17:38
#Acquired=	03.11.2025 17:38:26
100.969	28
102.252	34
103.535	34
104.818	33
106.101	28
107.384	37
108.666	32
109.948	29
111.232	34
112.514	31
113.795	36
115.077	37
116.358	30
117.639	29
118.919	36
120.2	34
121.48	32
122.76	34
124.04	30
125.32	31
126.599	35
127.879	32
129.158	34
130.436	32
131.715	36
132.992	37
134.27	38
135.548	39
136.826	37
138.104	32
139.381	34
140.658	32
141.935	37
143.212	37
144.489	36
145.763	35
147.04	39
148.315	36
149.591	34
150.867	32
152.142	39
153.416	40
154.691	42
155.965	39
157.24	44
158.514	42
159.786	39
161.06	40
162.334	39
163.607	39
164.881	38
166.152	38
167.425	44
168.698	41
169.969	37
171.241	38
172.513	44
173.785	38
175.055	38
176.326	37
177.597	37
178.867	38
180.137	38
181.408	40
182.677	40
183.947	41
185.217	37
186.485	38
187.755	39
189.022	41
190.291	42
191.56	38
192.828	37
194.096	44
195.363	38
196.631	36
197.899	39
199.165	39
200.432	39
201.698	37
202.965	38
204.23	39
205.497	35
206.762	40
208.028	38
209.293	32
210.559	40
211.823	40
213.088	34
214.352	34
215.617	38
216.88	38
218.145	30
219.408	32
220.672	31
221.934	34
223.196	39
224.46	33
225.722	39
226.985	37
228.246	32
229.508	28
230.77	34
232.031	34
233.292	33
234.554	28
235.814	27
237.074	36
238.335	32
239.595	37
240.854	31
242.115	32
243.374	37
244.633	34
245.893	33
247.151	30
248.409	33
249.667	28
250.927	28
252.184	35
253.442	31
254.699	28
255.957	32
257.214	34
258.47	31
259.727	31
260.983	28
262.24	30
263.496	34
264.752	33
266.007	33
267.262	28
268.517	34
269.773	29
271.028	29
272.282	28
273.536	33
274.79	32
276.044	33
277.297	29
278.551	32
279.804	28
281.057	31
282.31	29
283.564	32
284.816	34
286.068	28
287.32	30
288.572	32
289.823	32
291.074	29
292.325	33
293.576	30
294.827	33
296.077	35
297.328	36
298.578	30
299.828	30
301.077	32
302.325	34
303.575	32
304.824	32
306.073	30
307.321	30
308.57	34
309.818	28
311.066	33
312.314	34
313.562	35
314.808	32
316.055	34
317.302	30
318.549	34
319.796	28
321.042	28
322.288	30
323.533	26
324.779	32
326.024	36
327.27	26
328.515	30
329.759	29
331.004	32
332.248	32
333.493	24
334.736	30
335.98	31
337.223	35
338.466	31
339.709	33
340.952	28
342.195	33
343.437	30
344.68	33
345.922	22
347.163	32
348.405	28
349.647	34
350.887	36
352.128	35
353.37	29
354.609	30
355.85	29
357.089	34
358.33	26
359.57	35
360.809	32
362.049	33
363.287	34
364.526	30
365.764	31
367.003	30
368.241	37
369.479	36
370.718	31
371.955	31
373.193	31
374.429	33
375.667	30
376.903	30
378.139	35
379.376	26
380.611	28
381.848	26
383.083	30
384.319	30
385.554	32
386.79	28
388.024	30
389.258	31
390.493	34
391.727	34
392.962	28
394.195	35
395.428	32
396.663	36
397.895	31
399.128	30
400.361	28
401.593	24
402.825	34
404.058	32
405.29	36
406.521	28
407.752	28
408.985	32
410.215	36
411.446	26
412.678	26
413.908	28
415.138	32
416.367	26
417.597	30
418.828	32
420.057	30
421.286	29
422.514	32
423.743	29
424.973	34
426.201	30
427.429	32
428.657	33
429.884	32
431.112	34
432.34	33
433.567	30
434.794	30
436.02	30
437.247	32
438.473	26
439.699	32
440.925	34
442.15	30
443.376	30
444.601	31
445.826	32
447.051	30
448.275	32
449.5	31
450.724	35
451.948	30
453.172	30
454.396	29
455.619	36
456.842	28
458.065	34
459.288	28
460.511	36
461.733	32
462.956	32
464.178	33
465.4	32
466.621	36
467.843	37
469.064	38
470.285	32
471.505	33
472.726	34
473.946	41
475.166	38
476.387	42
477.606	36
478.825	35
480.044	44
481.264	38
482.483	44
483.702	47
484.921	51
486.138	52
487.356	54
488.574	58
489.792	51
491.009	56
492.226	56
493.444	50
494.661	54
495.877	42
497.094	42
498.31	46
499.525	47
500.741	40
501.958	41
503.172	40
504.388	40
505.603	32
506.817	42
508.032	40
509.247	37
510.46	36
511.675	35
512.888	37
514.102	32
515.316	32
516.528	33
517.742	36
518.954	32
520.167	35
521.378	35
522.591	34
523.802	33
525.015	34
526.226	35
527.438	33
528.648	31
529.86	26
531.07	32
532.281	32
533.491	35
534.702	33
535.911	29
537.121	32
538.33	32
539.54	31
540.749	32
541.957	34
543.167	38
544.375	34
545.584	28
546.791	36
547.999	32
549.207	32
550.414	26
551.621	36
552.829	26
554.035	28
555.241	28
556.449	26
557.655	31
558.86	28
560.066	29
561.272	40
562.477	28
563.682	30
564.888	28
566.093	31
567.297	28
568.501	32
569.705	28
570.91	28
572.114	30
573.317	34
574.52	30
575.723	37
576.927	28
578.13	28
579.332	33
580.535	34
581.737	33
582.938	34
584.14	36
585.343	28
586.544	28
587.745	32
588.946	28
590.147	33
591.347	28
592.548	28
593.748	33
594.948	24
596.147	31
597.347	34
598.546	34
599.745	33
600.944	29
602.143	29
603.342	29
604.54	33
605.738	34
606.937	28
608.134	34
609.332	32
610.529	28
611.727	29
612.924	38
614.121	33
615.317	32
616.513	31
617.709	33
618.905	26
620.101	29
621.297	30
622.492	28
623.688	32
624.883	28
626.077	34
627.271	28
628.466	36
629.66	32
630.855	32
632.047	34
633.241	32
634.435	30
635.629	30
636.82	35
638.014	30
639.207	31
640.399	35
641.59	32
642.783	33
643.975	36
645.166	34
646.357	32
647.549	28
648.741	30
649.93	29
651.122	31
652.311	35
653.502	32
654.692	33
655.881	34
657.071	32
658.261	30
659.45	32
660.639	31
661.827	28
663.016	32
664.204	24
665.393	31
666.581	32
667.769	32
668.957	33
670.143	34
671.331	31
672.518	34
673.705	36
674.891	36
676.078	36
677.264	24
678.451	35
679.636	32
680.821	38
682.007	30
683.192	28
684.378	36
685.562	37
686.747	36
687.931	36
689.115	32
690.3	34
691.483	35
692.666	39
693.851	35
695.034	39
696.216	38
697.4	28
698.582	37
699.764	34
700.948	36
702.129	40
703.311	43
704.493	43
705.674	39
706.855	44
708.036	40
709.218	48
710.399	45
711.579	46
712.759	37
713.939	40
715.12	40
716.299	36
717.478	42
718.657	38
719.836	34
721.015	32
722.195	34
723.373	37
724.552	32
725.729	33
726.907	33
728.085	30
729.262	33
730.44	34
731.617	32
732.795	30
733.972	26
735.148	30
736.324	30
737.501	30
738.677	33
739.852	29
741.028	28
742.203	24
743.379	32
744.554	28
745.729	30
746.903	30
748.078	36
749.252	32
750.426	31
751.599	29
752.772	31
753.946	35
755.119	34
756.293	34
757.466	33
758.639	24
759.811	27
760.984	28
762.155	30
763.327	34
764.499	28
765.67	35
766.842	31
768.013	30
769.183	30
770.354	34
771.525	33
772.696	28
773.865	35
775.035	34
776.205	31
777.375	26
778.544	33
779.713	34
780.882	29
782.052	34
783.219	33
784.388	34
785.557	37
786.724	26
787.892	36
789.06	32
790.227	32
791.395	32
792.562	35
793.728	28
794.895	33
796.061	34
797.228	33
798.395	32
799.56	30
800.726	32
801.891	30
803.057	30
804.221	32
805.387	26
806.551	28
807.716	32
808.879	34
810.044	28
811.208	34
812.372	33
813.535	31
814.699	32
815.862	29
817.025	30
818.188	27
819.351	34
820.513	34
821.675	28
822.837	28
823.999	35
825.161	32
826.322	32
827.483	22
828.645	27
829.805	28
830.966	29
832.127	32
833.287	28
834.447	29
835.607	28
836.767	30
837.926	28
839.085	31
840.245	32
841.404	30
842.562	30
843.72	29
844.88	24
846.038	33
847.195	34
848.353	32
849.512	26
850.669	29
851.826	32
852.983	33
854.139	32
855.296	36
856.453	32
857.609	33
858.765	36
859.921	29
861.077	32
862.232	32
863.387	38
864.542	36
865.697	33
866.852	28
868.008	30
869.162	31
870.316	36
871.47	35
872.624	31
873.778	32
874.931	34
876.084	36
877.237	30
878.39	30
879.543	32
880.695	26
881.846	32
882.999	28
884.151	31
885.302	35
886.454	29
887.606	30
888.757	23
889.908	28
891.059	28
892.21	32
893.359	26
894.509	29
895.659	33
896.81	35
897.959	32
899.109	32
900.257	26
901.407	29
902.556	34
903.705	30
904.854	25
906.001	33
907.149	22
908.298	29
909.446	26
910.592	30
911.74	28
912.888	34
914.034	34
915.181	27
916.328	33
917.473	30
918.62	33
919.766	33
920.911	33
922.058	27
923.204	35
924.348	29
925.494	31
926.638	30
927.783	32
928.928	30
930.072	29
931.216	27
932.36	30
933.504	27
934.647	26
935.791	32
936.933	28
938.077	32
939.219	30
940.363	28
941.504	32
942.647	28
943.789	30
944.932	32
946.073	30
947.215	28
948.356	33
949.498	33
950.638	29
951.778	34
952.92	28
954.06	30
955.199	30
956.34	30
957.479	31
958.62	32
959.759	25
960.898	28
962.038	31
963.176	28
964.315	28
965.453	30
966.592	32
967.73	33
968.867	31
970.006	31
971.144	31
972.281	30
973.418	30
974.554	24
975.692	30
976.829	26
977.965	28
979.101	29
980.237	30
981.374	30
982.509	36
983.645	28
984.78	29
985.915	28
987.05	30
988.184	30
989.319	29
990.453	31
991.589	32
992.722	29
993.856	33
994.99	34
996.123	30
997.257	18
998.39	33
999.523	18
1000.66	27
1001.79	31
1002.92	28
1004.05	30
1005.18	29
1006.32	36
1007.45	32
1008.58	28
1009.71	30
1010.84	30
1011.97	31
1013.1	28
1014.23	33
1015.36	28
1016.49	28
1017.62	26
1018.75	30
1019.88	26
1021.01	28
1022.14	26
1023.27	30
1024.4	30
1025.53	33
1026.66	20
1027.79	27
1028.91	28
1030.04	29
1031.17	23
1032.3	28
1033.42	31
1034.55	28
1035.68	34
1036.81	26
1037.93	30
1039.06	32
1040.18	27
1041.31	33
1042.44	35
1043.56	28
1044.69	33
1045.81	28
1046.94	32
1048.06	28
1049.19	33
1050.31	29
1051.44	30
1052.56	30
1053.69	31
1054.81	28
1055.93	32
1057.06	26
1058.18	28
1059.3	28
1060.43	28
1061.55	28
1062.67	26
1063.79	28
1064.92	29
1066.04	33
1067.16	32
1068.28	33
1069.4	29
1070.52	28
1071.65	32
1072.77	32
1073.89	31
1075.01	33
1076.13	28
1077.25	32
1078.37	28
1079.49	23
1080.61	30
1081.73	32
1082.85	25
1083.97	30
1085.09	28
1086.2	26
1087.32	24
1088.44	27
1089.56	32
1090.68	24
1091.8	30
1092.91	29
1094.03	26
1095.15	24
1096.26	31
1097.38	29
1098.5	28
1099.61	24
1100.73	31
1101.85	26
1102.96	34
1104.08	26
1105.19	33
1106.31	30
1107.43	28
1108.54	26
1109.66	30
1110.77	28
1111.88	27
1113	24
1114.11	29
1115.23	33
1116.34	30
1117.46	20
1118.57	26
1119.68	26
1120.8	31
1121.91	32
1123.02	27
1124.13	28
1125.25	34
1126.36	30
1127.47	31
1128.58	28
1129.69	29
1130.8	30
1131.92	26
1133.03	23
1134.14	29
1135.25	28
1136.36	20
1137.47	28
1138.58	26
1139.69	28
1140.8	34
1141.91	29
1143.02	28
1144.13	28
1145.24	29
1146.35	31
1147.46	33
1148.56	27
1149.67	24
1150.78	29
1151.89	35
1153	28
1154.1	24
1155.21	30
1156.32	30
1157.43	26
1158.53	24
1159.64	26
1160.75	30
1161.85	29
1162.96	24
1164.07	34
1165.17	28
1166.28	32
1167.38	27
1168.49	29
1169.59	36
1170.7	29
1171.8	30
1172.91	26
1174.01	26
1175.12	31
1176.22	23
1177.32	28
1178.43	31
1179.53	26
1180.64	24
1181.74	20
1182.84	28
1183.94	20
1185.05	24
1186.15	32
1187.25	31
1188.35	26
1189.46	29
1190.56	32
1191.66	28
1192.76	32
1193.86	29
1194.96	29
1196.06	24
1197.16	30.8971
1198.26	31.8862
1199.37	26.1373
1200.47	22.2801
1201.57	27.9167
1202.67	29.7451
1203.77	26.9265
1204.86	30.7161
1205.96	27.8477
1207.06	20.7878
1208.16	28.934
1209.26	26.752
1210.36	27.7393
1211.46	30.7165
1212.56	26.0021
1213.65	28.8654
1214.75	30.9621
1215.85	24.4621
1216.95	24.1912
1218.04	25.799
1219.14	27.6641
1220.24	26.2364
1221.33	27.8567
1222.43	26.716
1223.53	26.2006
1224.62	26.2313
1225.72	27.1508
1226.82	32.5312
1227.91	30.626
1229.01	23.9216
1230.1	28.0484
1231.2	28.646
1232.29	28.7045
1233.39	27.763
1234.48	22.515
1235.58	27.4209
1236.67	26.0617
1237.77	25.4485
1238.86	23.3612
1239.95	30.2904
1241.05	26.8481
1242.14	28.5181
1243.23	29.6513
1244.33	27.5961
1245.42	24.9649
1246.51	25.1878
1247.61	25.9233
1248.7	23.3352
1249.79	25.9412
1250.88	27.3184
1251.97	28.2064
1253.07	25.7475
1254.16	26.8324
1255.25	32.1373
1256.34	28.9038
1257.43	28.7861
1258.52	25.9509
1259.61	30.6674
1260.7	32.0822
1261.79	30
1262.88	29.6676
1263.97	31.5408
1265.06	32.1254
1266.15	28.2386
1267.24	27.8646
1268.33	29.5812
1269.42	25.8596
1270.51	23.1098
1271.6	24.8387
1272.68	25.7243
1273.77	27.7859
1274.86	26.5534
1275.95	27.2416
1277.04	26.348
1278.12	25.3191
1279.21	24.1042
1280.3	25.5196
1281.39	24.9482
1282.47	24.4199
1283.56	27.2903
1284.65	27.7706
1285.73	29.0606
1286.82	26.5441
1287.91	26.3062
1288.99	27
1290.08	27.326
1291.16	26.3631
1292.25	29.488
1293.33	28.7303
1294.42	29.8712
1295.5	27.3312
1296.59	28.5551
1297.67	25.6725
1298.76	30.6472
1299.84	24.6838
1300.92	27.2048
1302.01	27.5432
1303.09	25.0888
1304.17	26.2704
1305.26	27.8745
1306.34	27.2272
1307.34	30
1308.43	27
1309.52	26
1310.61	28
1311.7	26
1312.78	28
1313.87	26
1314.96	29
1316.04	25
1317.13	28
1318.22	27
1319.3	27
1320.39	28
1321.48	30
1322.56	30
1323.65	32
1324.73	24
1325.82	29
1326.9	26
1327.99	29
1329.07	26
1330.16	28
1331.24	26
1332.33	24
1333.41	28
1334.5	26
1335.58	22
1336.66	29
1337.75	30
1338.83	32
1339.91	24
1341	30
1342.08	34
1343.16	27
1344.24	32
1345.33	24
1346.41	30
1347.49	25
1348.57	30
1349.65	28
1350.74	22
1351.82	27
1352.9	30
1353.98	29
1355.06	29
1356.14	28
1357.22	26
1358.3	28
1359.38	24
1360.46	27
1361.54	32
1362.62	26
1363.7	29
1364.78	27
1365.86	24
1366.94	30
1368.02	24
1369.09	26
1370.17	32
1371.25	28
1372.33	22
1373.41	27
1374.48	28
1375.56	25
1376.64	27
1377.72	26
1378.79	28
1379.87	31
1380.95	28
1382.02	30
1383.1	33
1384.17	26
1385.25	24
1386.33	26
1387.4	26
1388.48	28
1389.55	32
1390.63	26
1391.7	30
1392.78	30
1393.85	23
1394.93	26
1396	28
1397.07	36
1398.15	27
1399.22	34
1400.3	33
1401.37	34
1402.44	30
1403.52	30
1404.59	32
1405.66	28
1406.73	32
1407.81	30
1408.88	32
1409.95	26
1411.02	30
1412.09	28
1413.17	32
1414.24	35
1415.31	34
1416.38	35
1417.45	32
1418.52	29
1419.59	31
1420.66	30
1421.73	29
1422.8	30
1423.87	29
1424.94	27
1426.01	32
1427.08	31
1428.15	28
1429.22	20
1430.29	26
1431.35	31
1432.42	26
1433.49	33
1434.56	29
1435.63	34
1436.69	28
1437.76	28
1438.83	29
1439.9	29
1440.96	28
1442.03	33
1443.1	28
1444.17	24
1445.23	28
1446.3	22
1447.36	26
1448.43	30
1449.49	24
1450.56	30
1451.63	30
1452.69	28
1453.76	28
1454.82	26
1455.89	26
1456.95	34
1458.01	28
1459.08	30
1460.14	31
1461.21	31
1462.27	28
1463.34	32
1464.4	32
1465.46	32
1466.52	30
1467.59	31
1468.65	28
1469.71	33
1470.77	26
1471.84	26
1472.9	27
1473.96	28
1475.02	29
1476.08	29
1477.15	30
1478.21	29
1479.27	34
1480.33	28
1481.39	28
1482.45	34
1483.51	31
1484.57	29
1485.63	28
1486.69	28
1487.75	28
1488.81	24
1489.87	32
1490.93	26
1491.99	28
1493.05	25
1494.1	31
1495.16	26
1496.22	28
1497.28	29
1498.34	28
1499.4	27
1500.45	31
1501.51	28
1502.57	35
1503.63	34
1504.68	29
1505.74	28
1506.8	24
1507.85	26
1508.91	28
1509.97	28
1511.02	31
1512.08	25
1513.13	33
1514.19	22
1515.24	31
1516.3	26
1517.35	30
1518.41	31
1519.46	28
1520.52	24
1521.57	30
1522.63	32
1523.68	22
1524.73	26
1525.79	26
1526.84	30
1527.9	28
1528.95	27
1530	27
1531.05	31
1532.11	28
1533.16	28
1534.21	30
1535.26	28
1536.32	27
1537.37	32
1538.42	30
1539.47	26
1540.52	26
1541.57	29
1542.63	29
1543.68	30
1544.73	28
1545.78	31
1546.83	29
1547.88	25
1548.93	25
1549.98	27
1551.03	26
1552.08	33
1553.13	26
1554.18	31
1555.23	29
1556.27	28
1557.32	27
1558.37	28
1559.42	31
1560.47	31
1561.52	30
1562.56	28
1563.61	28
1564.66	32
1565.71	29
1566.75	28
1567.8	28
1568.85	30
1569.9	30
1570.94	30
1571.99	24
1573.03	26
1574.08	22
1575.13	30
1576.17	30
1577.22	28
1578.26	30
1579.31	31
1580.35	30
1581.4	29
1582.44	35
1583.49	33
1584.53	25
1585.58	27
1586.62	30
1587.66	26
1588.71	32
1589.75	30
1590.8	29
1591.84	25
1592.88	28
1593.92	28
1594.97	31
1596.01	24
1597.05	28
1598.1	29
1599.14	26
1600.18	34
1601.22	25
1602.26	26
1603.3	28
1604.35	28
1605.39	26
1606.43	29
1607.47	30
1608.51	26
1609.55	26
1610.59	33
1611.63	24
1612.67	28
1613.71	32
1614.75	29
1615.79	22
1616.83	28
1617.87	30
1618.91	33
1619.95	31
1620.99	26
1622.02	32
1623.06	26
1624.1	22
1625.14	23
1626.18	31
1627.21	27
1628.25	28
1629.29	28
1630.33	30
1631.36	28
1632.4	28
1633.44	24
1634.48	24
1635.51	28
1636.55	26
1637.58	28
1638.62	33
1639.66	28
1640.69	28
1641.73	28
1642.76	28
1643.8	24
1644.83	29
1645.87	30
1646.9	27
1647.94	26
1648.97	28
1650	33
1651.04	28
1652.07	29
1653.11	28
1654.14	28
1655.17	29
1656.21	29
1657.24	29
1658.27	33
1659.31	30
1660.34	32
1661.37	32
1662.4	29
1663.43	28
1664.47	30
1665.5	31
1666.53	26
1667.56	34
1668.59	29
1669.62	26
1670.66	28
1671.69	26
1672.72	24
1673.75	27
1674.78	30
1675.81	32
1676.84	29
1677.87	36
1678.9	29
1679.93	32
1680.96	26
1681.98	26
1683.01	32
1684.04	29
1685.07	28
1686.1	26
1687.13	23
1688.16	34
1689.18	32
1690.21	32
1691.24	26
1692.27	31
1693.3	20
1694.32	32
1695.35	33
1696.38	31
1697.4	30
1698.43	26
1699.46	29
1700.48	33
1701.51	28
1702.54	30
1703.56	26
1704.59	34
1705.61	24
1706.64	34
1707.66	31
1708.69	33
1709.71	24
1710.74	26
1711.76	24
1712.79	28
1713.81	26
1714.83	31
1715.86	23
1716.88	29
1717.91	32
1718.93	28
1719.95	31
1720.98	26
1722	28
1723.02	30
1724.04	33
1725.07	27
1726.09	28
1727.11	36
1728.13	33
1729.15	28
1730.18	26
1731.2	26
1732.22	32
1733.24	27
1734.26	30
1735.28	28
1736.3	32
1737.32	26
1738.34	31
1739.36	27
1740.38	30
1741.4	28
1742.42	29
1743.44	26
1744.46	28
1745.48	27
1746.5	28
1747.52	28
1748.54	28
1749.56	26
1750.58	26
1751.6	30
1752.61	27
1753.63	29
1754.65	24
1755.67	28
1756.68	30
1757.7	32
1758.72	26
1759.74	30
1760.75	29
1761.77	24
1762.79	24
1763.8	32
1764.82	28
1765.83	25
1766.85	28
1767.87	26
1768.88	28
1769.9	32
1770.91	30
1771.93	32
1772.94	28
1773.96	25
1774.97	30
1775.99	24
1777	30
1778.02	31
1779.03	30
1780.04	27
1781.06	30
1782.07	27
1783.09	26
1784.1	16
1785.11	29
1786.13	24
1787.14	29
1788.15	29
1789.16	30
1790.18	18
1791.19	30
1792.2	29
1793.21	25
1794.22	26
1795.23	30
1796.25	30
1797.26	28
1798.27	27
1799.28	30
1800.29	24
1801.3	29
1802.31	33
1803.32	22
1804.33	26
1805.34	30
1806.35	20
1807.36	27
1808.37	30
1809.38	29
1810.39	24
1811.4	29
1812.41	34
1813.42	30
1814.42	29
1815.43	28
1816.44	32
1817.45	26
1818.46	22
1819.47	29
1820.47	24
1821.48	29
1822.49	29
1823.49	31
1824.5	27
1825.51	28
1826.52	29
1827.52	29
1828.53	27
1829.53	30
1830.54	26
1831.55	24
1832.55	24
1833.56	28
1834.56	28
1835.57	29
1836.57	24
1837.58	28
1838.58	28
1839.59	29
1840.59	26
1841.6	29
1842.6	25
1843.61	26
1844.61	26
1845.61	26
1846.62	30
1847.62	28
1848.62	23
1849.63	30
1850.63	25
1851.63	30
1852.64	26
1853.64	27
1854.64	30
1855.64	30
1856.64	29
1857.65	31
1858.65	32
1859.65	28
1860.65	29
1861.65	22
1862.65	28
1863.65	25
1864.66	29
1865.66	31
1866.66	32
1867.66	24
1868.66	28
1869.66	28
1870.66	30
1871.66	28
1872.66	29
1873.66	29
1874.66	29
1875.65	26
1876.65	28
1877.65	28
1878.65	27
1879.65	26
1880.65	28
1881.65	28
1882.64	25
1883.64	29
1884.64	32
1885.64	27
1886.63	31
1887.63	26
1888.63	31
1889.63	31
1890.62	26
1891.62	24
1892.62	31
1893.61	31
1894.61	26
1895.6	28
1896.6	31
1897.6	26
1898.59	28
1899.59	34
1900.58	24
1901.58	28
1902.57	26
1903.57	31
1904.56	26
1905.56	26
1906.55	31
1907.54	26
1908.54	28
1909.53	28
1910.53	28
1911.52	22
1912.51	30
1913.51	29
1914.5	27
1915.49	26
1916.49	27
1917.48	22
1918.47	30
1919.46	28
1920.46	27
1921.45	27
1922.44	29
1923.43	28
1924.42	26
1925.41	26
1926.41	27
1927.4	29
1928.39	27
1929.38	30
1930.37	30
1931.36	34
1932.35	22
1933.34	29
1934.33	27
1935.32	27
1936.31	26
1937.3	28
1938.29	26
1939.28	34
1940.27	22
1941.26	29
1942.24	22
1943.23	26
1944.22	30
1945.21	27
1946.2	26
1947.19	33
1948.17	29
1949.16	27
1950.15	30
1951.14	30
1952.12	30
1953.11	26
1954.1	32
1955.09	26
1956.07	26
1957.06	29
1958.05	31
1959.03	31
1960.02	26
1961	24
1961.99	28
1962.98	28
1963.96	33
1964.95	26
1965.93	26
1966.92	30
1967.9	20
1968.89	28
1969.87	28
1970.85	27
1971.84	34
1972.82	24
1973.81	29
1974.79	31
1975.78	30
1976.76	30
1977.74	28
1978.73	27
1979.71	29
1980.69	31
1981.67	28
1982.66	29
1983.64	28
1984.62	28
1985.6	26
1986.59	26
1987.57	22
1988.55	28
1989.53	27
1990.51	26
1991.49	26
1992.47	29
1993.45	28
1994.44	22
1995.42	30
1996.4	26
1997.38	30
1998.36	27
1999.34	31
2000.32	28
2001.3	24
2002.28	25
2003.26	24
2004.24	30
2005.22	26
2006.19	24
2007.17	24
2008.15	28
2009.13	26
2010.11	32
2011.09	28
2012.06	27
2013.04	29
2014.02	29
2015	30
2015.98	32
2016.95	32
2017.93	27
2018.91	25
2019.88	25
2020.86	25
2021.84	25
2022.81	31
2023.79	28
2024.77	29
2025.74	27
2026.72	28
2027.69	26
2028.67	31
2029.65	26
2030.62	26
2031.6	27
2032.57	23
2033.55	31
2034.52	22
2035.5	27
2036.47	31
2037.44	30
2038.42	30
2039.39	24
2040.36	26
2041.34	27
2042.31	26
2043.29	26
2044.26	24
2045.23	26
2046.2	26
2047.18	27
2048.15	26
2049.12	26
2050.09	27
2051.07	26
2052.04	24
2053.01	28
2053.98	26
2054.95	29
2055.93	28
2056.9	22
2057.87	26
2058.84	27
2059.81	26
2060.78	28
2061.75	24
2062.72	26
2063.69	30
2064.66	26
2065.63	24
2066.6	28
2067.57	29
2068.54	22
2069.51	28
2070.48	30
2071.45	29
2072.42	27
2073.38	26
2074.35	28
2075.32	27
2076.29	26
2077.26	25
2078.23	26
2079.19	28
2080.16	29
2081.13	25
2082.1	26
2083.06	26
2084.03	26
2085	25
2085.96	24
2086.93	24
2087.9	24
2088.86	27
2089.83	24
2090.8	25
2091.76	26
2092.73	26
2093.69	26
2094.66	24
2095.62	27
2096.59	29
2097.55	24
2098.52	29
2099.48	29
2100.45	26
2101.41	30
2102.38	28
2103.34	27
2104.31	28
2105.27	29
2106.23	26
2107.2	24
2108.16	29
2109.12	24
2110.09	29
2111.05	28
2112.01	26
2112.98	25
2113.94	24
2114.9	29
2115.86	29
2116.82	28
2117.79	24
2118.75	22
2119.71	26
2120.67	24
2121.63	30
2122.59	32
2123.55	26
2124.52	28
2125.48	27
2126.44	29
2127.4	26
2128.36	29
2129.32	25
2130.28	23
2131.24	29
2132.2	23
2133.16	24
2134.12	27
2135.08	27
2136.04	28
2136.99	29
2137.95	24
2138.91	20
2139.87	30
2140.83	26
2141.79	30
2142.75	28
2143.7	23
2144.66	23
2145.62	25.007
2146.58	26.9185
2147.53	26.9755
2148.49	30.8228
2149.45	27.8269
2150.41	25.9422
2151.36	28.6982
2152.32	29.8574
2153.27	22.5787
2154.23	26.1766
2155.19	28.6912
2156.14	30.4269
2157.1	25.7549
2158.06	24
2159.01	24.0074
2159.97	25.1487
2160.92	25.8382
2161.88	22.5092
2162.83	29.3752
2163.79	28.1912
2164.74	28.7989
2165.7	30.6854
2166.65	25.1176
2167.61	28.7418
2168.56	26.8289
2169.51	25.7352
2170.47	27.4465
2171.42	25.935
2172.38	27.2813
2173.33	24.4922
2174.28	24.869
2175.24	26.5059
2176.19	23.9118
2177.14	25.6798
2178.09	27.6975
2179.05	25.652
2180	26.2709
2180.95	24.9331
2181.9	25.9038
2182.86	28.1086
2183.81	25.8267
2184.76	23.3173
2185.71	25.1667
2186.66	25.6985
2187.61	25.6732
2188.57	23.3382
2189.52	28.1144
2190.47	27.3334
2191.42	26.0208
2192.37	27.4118
2193.32	26.1547
2194.27	24.3078
2195.22	25.1147
2196.17	25.221
2197.12	24.9314
2198.07	26.7025
2199.02	26.5411
2199.97	27.1475
2200.92	26.7328
2201.87	28.4306
2202.82	22.9941
2203.76	27.5255
2204.71	28.1618
2205.66	23.4511
2206.61	23.718
2207.56	25.7393
2208.51	25.5606
2209.45	24.3538
2210.4	26.6755
2211.35	26.6052
2212.3	24.6176
2213.24	26.9577
2214.19	24.1293
2215.14	23.081
2216.09	26.1307
2217.03	26.5291
2217.98	26.2175
2218.93	26.4804
2219.87	26.2304
2220.82	23.8379
2221.77	27.0743
2222.71	25.9535
2223.66	23.9722
2224.6	24.291
2225.55	26
2226.49	26.1398
2227.44	25.768
2228.38	25.1187
2229.33	25.8676
2230.27	28.499
2231.22	25.3692
2232.16	24.1317
2233.11	26.7983
2234.05	26.4443
2235	24.8597
2235.94	21.6466
2236.88	26.1638
2237.83	26.7794
2238.77	24.4942
2239.71	25.2724
2240.66	27.6839
2241.6	27.2606
2242	26
2242.95	21
2243.9	24
2244.84	24
2245.79	22
2246.74	30
2247.69	24
2248.63	26
2249.58	22
2250.53	24
2251.47	18
2252.42	24
2253.37	27
2254.31	23
2255.26	24
2256.2	27
2257.15	23
2258.1	18
2259.04	30
2259.99	26
2260.93	27
2261.88	29
2262.82	20
2263.77	22
2264.71	24
2265.65	29
2266.6	25
2267.54	26
2268.49	26
2269.43	31
2270.38	26
2271.32	31
2272.26	26
2273.21	28
2274.15	26
2275.09	29
2276.04	28
2276.98	22
2277.92	24
2278.86	25
2279.81	26
2280.75	26
2281.69	28
2282.63	26
2283.57	28
2284.52	18
2285.46	32
2286.4	28
2287.34	29
2288.28	24
2289.22	26
2290.16	27
2291.1	25
2292.04	25
2292.98	27
2293.93	24
2294.86	27
2295.8	27
2296.74	28
2297.69	22
2298.62	23
2299.56	22
2300.5	25
2301.44	26
2302.38	30
2303.32	24
2304.26	24
2305.2	22
2306.14	26
2307.07	20
2308.01	26
2308.95	26
2309.89	26
2310.83	24
2311.76	28
2312.7	24
2313.64	30
2314.58	24
2315.51	28
2316.45	27
2317.39	24
2318.32	31
2319.26	26
2320.2	24
2321.13	27
2322.07	28
2323	26
2323.94	27
2324.88	30
2325.81	26
2326.75	28
2327.68	31
2328.62	26
2329.55	26
2330.49	27
2331.42	26
2332.36	24
2333.29	29
2334.22	23
2335.16	28
2336.09	23
2337.03	31
2337.96	29
2338.89	26
2339.83	22
2340.76	27
2341.69	28
2342.63	29
2343.56	22
2344.49	26
2345.43	23
2346.36	28
2347.29	28
2348.22	24
2349.15	24
2350.09	28
2351.02	26
2351.95	31
2352.88	26
2353.81	26
2354.74	22
2355.67	27
2356.61	30
2357.54	27
2358.47	27
2359.4	26
2360.33	25
2361.26	27
2362.19	28
2363.12	28
2364.05	30
2364.98	26
2365.91	21
2366.84	18
2367.77	24
2368.7	30
2369.62	27
2370.55	24
2371.48	25
2372.41	29
2373.34	30
2374.27	29
2375.2	28
2376.12	26
2377.05	28
2377.98	28
2378.91	27
2379.83	26
2380.76	26
2381.69	28
2382.62	29
2383.54	22
2384.47	29
2385.4	26
2386.32	27
2387.25	27
2388.18	28
2389.1	30
2390.03	27
2390.95	27
2391.88	22
2392.81	24
2393.73	30
2394.66	26
2395.58	27
2396.51	24
2397.43	30
2398.36	26
2399.28	29
2400.2	23
2401.13	26
2402.05	25
2402.98	30
2403.9	27
2404.83	22
2405.75	28
2406.67	25
2407.6	25
2408.52	28
2409.44	25
2410.37	23
2411.29	28
2412.21	20
2413.13	24
2414.06	26
2414.98	28
2415.9	25
2416.82	30
2417.74	29
2418.67	24
2419.59	26
2420.51	29
2421.43	25
2422.35	26
2423.27	29
2424.19	25
2425.11	28
2426.03	28
2426.96	25
2427.88	27
2428.8	24
2429.72	24
2430.64	22
2431.56	24
2432.48	26
2433.39	33
2434.31	28
2435.23	26
2436.15	25
2437.07	27
2437.99	27
2438.91	28
2439.83	30
2440.75	22
2441.67	27
2442.58	26
2443.5	31
2444.42	28
2445.34	30
2446.26	28
2447.17	25
2448.09	23
2449.01	26
2449.92	29
2450.84	26
2451.76	24
2452.68	28
2453.59	26
2454.51	31
2455.42	25
2456.34	27
2457.26	25
2458.17	22
2459.09	22
2460	30
2460.92	28
2461.83	29
2462.75	25
2463.66	25
2464.58	27
2465.49	29
2466.41	26
2467.32	30
2468.24	26
2469.15	18
2470.07	28
2470.98	29
2471.89	28
2472.81	27
2473.72	22
2474.64	23
2475.55	27
2476.46	27
2477.37	22
2478.29	26
2479.2	28
2480.11	22
2481.03	26
2481.94	30
2482.85	26
2483.76	28
2484.67	27
2485.59	29
2486.5	26
2487.41	29
2488.32	27
2489.23	29
2490.14	24
2491.05	30
2491.97	28
2492.88	24
2493.79	33
2494.7	27
2495.61	26
2496.52	25
2497.43	30
2498.34	30
2499.25	30
2500.16	28
2501.07	25
2501.98	24
2502.89	27
2503.79	26
2504.7	22
2505.61	22
2506.52	25
2507.43	27
2508.34	29
2509.25	25
2510.16	26
2511.06	28
2511.97	18
2512.88	20
2513.79	23
2514.69	26
2515.6	26
2516.51	28
2517.42	24
2518.32	27
2519.23	28
2520.14	31
2521.04	33
2521.95	26
2522.86	32
2523.76	30
2524.67	22
2525.57	28
2526.48	20
2527.39	26
2528.29	24
2529.2	28
2530.1	25
2531.01	27
2531.91	26
2532.82	25
2533.72	30
2534.63	27
2535.53	24
2536.44	28
2537.34	28
2538.24	26
2539.15	32
2540.05	30
2540.96	18
2541.86	26
2542.76	26
2543.67	29
2544.57	28
2545.47	26
2546.37	27
2547.28	27
2548.18	24
2549.08	26
2549.99	25
2550.89	24
2551.79	26
2552.69	24
2553.59	29
2554.49	29
2555.4	26
2556.3	30
2557.2	28
2558.1	28
2559	24
2559.9	26
2560.8	26
2561.7	18
2562.6	24
2563.5	29
2564.4	28
2565.3	26
2566.2	24
2567.1	28
2568	27
2568.9	30
2569.8	23
2570.7	30
2571.6	27
2572.5	20
2573.4	26
2574.3	24
2575.2	26
2576.1	26
2576.99	26
2577.89	24
2578.79	28
2579.69	28
2580.59	26
2581.48	26
2582.38	28
2583.28	29
2584.18	30
2585.07	22
2585.97	26
2586.87	26
2587.76	23
2588.66	22
2589.56	27
2590.45	25
2591.35	25
2592.25	28
2593.14	32
2594.04	28
2594.93	26
2595.83	28
2596.73	24
2597.62	22
2598.52	24
2599.41	26
2600.31	32
2601.2	33
2602.1	28
2602.99	22
2603.88	22
2604.78	26
2605.67	28
2606.57	26
2607.46	35
2608.35	32
2609.25	31
2610.14	26
2611.03	30
2611.93	22
2612.82	30
2613.71	24
2614.61	26
2615.5	20
2616.39	26
2617.29	26
2618.18	27
2619.07	28
2619.96	33
2620.85	30
2621.75	24
2622.64	25
2623.53	24
2624.42	22
2625.31	26
2626.2	31
2627.09	26
2627.98	28
2628.88	22
2629.77	29
2630.66	18
2631.55	26
2632.44	27
2633.33	26
2634.22	30
2635.11	26
2636	23
2636.89	27
2637.78	27
2638.66	25
2639.55	29
2640.44	26
2641.33	28
2642.22	20
2643.11	31
2644	30
2644.89	28
2645.78	29
2646.66	29
2647.55	25
2648.44	28
2649.33	30
2650.21	28
2651.1	26
2651.99	29
2652.88	28
2653.76	29
2654.65	25
2655.54	25
2656.42	28
2657.31	28
2658.2	28
2659.08	26
2659.97	24
2660.86	24
2661.74	26
2662.63	26
2663.51	29
2664.4	26
2665.29	26
2666.17	27
2667.06	25
2667.94	27
2668.83	32
2669.71	30
2670.6	31
2671.48	27
2672.36	24
2673.25	28
2674.13	26
2675.02	30
2675.9	24
2676.78	30
2677.67	29
2678.55	32
2679.43	26
2680.32	24
2681.2	29
2682.08	28
2682.97	29
2683.85	32
2684.73	26
2685.61	26
2686.5	28
2687.38	25
2688.26	26
2689.14	29
2690.03	22
2690.91	23
2691.79	20
2692.67	27
2693.55	20
2694.43	27
2695.31	22
2696.19	30
2697.08	33
2697.96	27
2698.84	24
2699.72	25
2700.6	29
2701.48	26
2702.36	28
2703.24	32
2704.12	23
2705	24
2705.88	32
2706.76	24
2707.64	31
2708.51	27
2709.39	20
2710.27	31
2711.15	24
2712.03	28
2712.91	23
2713.79	24
2714.67	31
2715.54	25
2716.42	26
2717.3	24
2718.18	26
2719.05	24
2719.93	29
2720.81	30
2721.69	28
2722.56	27
2723.44	28
2724.32	27
2725.19	32
2726.07	27
2726.95	26
2727.82	30
2728.7	25
2729.58	20
2730.45	27
2731.33	28
2732.2	28
2733.08	26
2733.95	23
2734.83	31
2735.7	29
2736.58	27
2737.45	24
2738.33	26
2739.2	26
2740.08	22
2740.95	28
2741.83	28
2742.7	27
2743.58	26
2744.45	26
2745.32	27
2746.2	24
2747.07	33
2747.94	28
2748.82	25
2749.69	30
2750.56	28
2751.44	24
2752.31	26
2753.18	18
2754.05	32
2754.93	24
2755.8	28
2756.67	28
2757.54	27
2758.42	24
2759.29	25
2760.16	18
2761.03	26
2761.9	26
2762.77	28
2763.64	24
2764.51	29
2765.38	18
2766.26	29
2767.13	20
2768	31
2768.87	24
2769.74	26
2770.61	27
2771.48	28
2772.35	24
2773.22	27
2774.09	30
2774.96	26
2775.83	29
2776.7	20
2777.56	26
2778.43	24
2779.3	26
2780.17	28
2781.04	27
2781.91	26
2782.78	30
2783.64	28
2784.51	29
2785.38	28
2786.25	27
2787.12	23
2787.98	28
2788.85	26
2789.72	26
2790.59	28
2791.45	27
2792.32	28
2793.19	29
2794.05	26
2794.92	31
2795.79	26
2796.65	30
2797.52	24
2798.38	31
2799.25	23
2800.12	31
2800.98	27
2801.85	26
2802.71	31
2803.58	31.5
2804.44	32
2805.31	35
2806.17	28
2807.04	30
2807.9	32
2808.77	30
2809.63	29
2810.5	29
2811.36	29
2812.22	28
2813.09	28
2813.95	27
2814.82	26
2815.68	27
2816.54	32
2817.41	30
2818.27	29
2819.13	28
2820	24
2820.86	28
2821.72	35
2822.58	29
2823.45	25
2824.31	27
2825.17	30
2826.03	28
2826.9	30
2827.76	24
2828.62	24
2829.48	24
2830.34	24
2831.2	27
2832.06	28
2832.92	34
2833.79	28
2834.65	27
2835.51	27
2836.37	33
2837.23	30
2838.09	29
2838.95	29
2839.81	29
2840.67	27
2841.53	27
2842.39	27
2843.25	25
2844.11	31
2844.97	36
2845.83	30
2846.68	28
2847.54	26
2848.4	27
2849.26	24
2850.12	33
2850.98	26
2851.84	27
2852.69	22
2853.55	27
2854.41	28
2855.27	29
2856.13	29
2856.98	31
2857.84	29
2858.7	28
2859.56	26
2860.41	28
2861.27	28
2862.13	29
2862.98	32
2863.84	23
2864.7	30
2865.55	34
2866.41	26
2867.27	29
2868.12	22
2868.98	33
2869.83	26
2870.69	29
2871.54	29
2872.4	25
2873.25	31
2874.11	26
2874.96	33
2875.82	31
2876.68	28
2877.53	32
2878.38	34
2879.24	36
2880.09	30
2880.95	30
2881.8	33
2882.65	32
2883.51	33
2884.36	31
2885.22	32
2886.07	33
2886.92	31
2887.77	34
2888.63	34
2889.48	36
2890.33	28
2891.19	38
2892.04	35
2892.89	40
2893.74	38
2894.6	42
2895.45	38
2896.3	45
2897.15	43
2898	46
2898.85	48
2899.71	46
2900.56	49
2901.41	51
2902.26	56
2903.11	48
2903.96	64
2904.81	60
2905.66	57
2906.51	56
2907.36	52
2908.21	56
2909.06	56
2909.91	49
2910.76	44
2911.61	51
2912.46	48
2913.31	52
2914.16	47
2915.01	38
2915.86	40
2916.71	42
2917.56	40
2918.41	39
2919.26	32
2920.1	37
2920.95	36
2921.8	32
2922.65	33
2923.5	30
2924.34	34
2925.19	33
2926.04	28
2926.89	24
2927.74	29
2928.58	32
2929.43	35
2930.28	28
2931.12	32
2931.97	29
2932.82	30
2933.66	34
2934.51	29
2935.36	26
2936.2	35
2937.05	30
2937.89	30
2938.74	35
2939.59	32
2940.43	22
2941.28	31
2942.12	26
2942.97	24
2943.81	32
2944.66	30
2945.5	32
2946.35	30
2947.19	32
2948.04	31
2948.88	32
2949.72	27
2950.57	28
2951.41	26
2952.26	31
2953.1	34
2953.94	31
2954.79	33
2955.63	32
2956.47	30
2957.32	32
2958.16	26
2959	36
2959.85	32
2960.69	38
2961.53	35
2962.37	32
2963.22	40
2964.06	43
2964.9	40
2965.74	38
2966.58	38
2967.42	37
2968.27	42
2969.11	39
2969.95	34
2970.79	38
2971.63	36
2972.47	32
2973.31	37
2974.15	37
2974.99	35
2975.83	33
2976.68	34
2977.52	34
2978.36	28
2979.2	28
2980.04	32
2980.88	34
2981.71	30
2982.55	22
2983.39	32
2984.23	32
2985.07	26
2985.91	27
2986.75	29
2987.59	30
2988.43	26
2989.27	31
2990.1	30
2990.94	29
2991.78	26
2992.62	27
2993.46	28
2994.3	29
2995.13	26
2995.97	24
2996.81	27
2997.64	26
2998.48	27
2999.32	29
