#Acq. time (s)=	3
#Accumulations=	3
#Range (cm-¹)=	100...3000
#Windows=	3
#Autofocus=	Off
#AutoExposure=	Off
#Spike filter=	Multiple accum.
#Delay time (s)=	0
#Binning=	1
#Readout mode=	Signal
#DeNoise=	Off
#ICS correction=	Off
#Dark correction=	Off
#Inst. Process=	Off
#Instrument=	LabRAM HR Evol
#Detector=	Syncerity OE
#Objective=	x100_VIS_LWD
#Grating=	600 (500nm)
#ND Filter=	25%
#Laser=	633nm_Edge
#Hole=	100.021
#Range=	Visible
#Project=	Bolus
#Sample=	A4
#Site=	stripside
#Title=	m03
#Remark=	
#Date=	03.11.2025 17:19
#Acquired=	03.11.2025 17:19:05
100.969	28
102.252	38
103.535	34
104.818	37
106.101	28
107.384	32
108.666	28
109.948	34
111.232	38
112.514	32
113.795	30
115.077	32
116.358	31
117.639	30
118.919	30
120.2	34
121.48	36
122.76	34
124.04	36
125.32	36
126.599	28
127.879	37
129.158	30
130.436	37
131.715	32
132.992	36
134.27	38
135.548	36
136.826	39
138.104	36
139.381	32
140.658	32
141.935	36
143.212	35
144.489	38
145.763	39
147.04	42
148.315	37
149.591	41
150.867	34
152.142	43
153.416	38
154.691	36
155.965	42
157.24	39
158.514	39
159.786	38
161.06	42
162.334	40
163.607	38
164.881	38
166.152	39
167.425	30
168.698	40
169.969	34
171.241	41
172.513	32
173.785	40
175.055	39
176.326	44
177.597	39
178.867	39
180.137	35
181.408	36
182.677	39
183.947	43
185.217	41
186.485	37
187.755	41
189.022	41
190.291	35
191.56	42
192.828	38
194.096	44
195.363	36
196.631	37
197.899	32
199.165	38
200.432	37
201.698	35
202.965	36
204.23	32
205.497	35
206.762	42
208.028	42
209.293	38
210.559	38
211.823	34
213.088	36
214.352	34
215.617	37
216.88	35
218.145	38
219.408	36
220.672	32
221.934	33
223.196	34
224.46	36
225.722	36
226.985	33
228.246	30
229.508	41
230.77	36
232.031	30
233.292	37
234.554	34
235.814	33
237.074	30
238.335	37
239.595	35
240.854	30
242.115	32
243.374	30
244.633	33
245.893	34
247.151	28
248.409	32
249.667	32
250.927	34
252.184	33
253.442	31
254.699	35
255.957	30
257.214	31
258.47	35
259.727	32
260.983	29
262.24	31
263.496	35
264.752	32
266.007	33
267.262	35
268.517	35
269.773	34
271.028	36
272.282	36
273.536	29
274.79	24
276.044	35
277.297	29
278.551	32
279.804	31
281.057	34
282.31	32
283.564	34
284.816	35
286.068	31
287.32	32
288.572	32
289.823	28
291.074	30
292.325	33
293.576	29
294.827	32
296.077	28
297.328	26
298.578	34
299.828	31
301.077	28
302.325	31
303.575	30
304.824	31
306.073	26
307.321	34
308.57	29
309.818	32
311.066	36
312.314	27
313.562	35
314.808	30
316.055	33
317.302	33
318.549	31
319.796	35
321.042	35
322.288	37
323.533	31
324.779	30
326.024	35
327.27	32
328.515	35
329.759	35
331.004	32
332.248	32
333.493	33
334.736	38
335.98	34
337.223	34
338.466	35
339.709	38
340.952	29
342.195	32
343.437	33
344.68	35
345.922	32
347.163	36
348.405	35
349.647	36
350.887	34
352.128	29
353.37	27
354.609	36
355.85	34
357.089	30
358.33	29
359.57	32
360.809	34
362.049	31
363.287	28
364.526	30
365.764	26
367.003	36
368.241	36
369.479	26
370.718	34
371.955	28
373.193	34
374.429	37
375.667	33
376.903	29
378.139	39
379.376	30
380.611	36
381.848	33
383.083	32
384.319	31
385.554	31
386.79	32
388.024	30
389.258	24
390.493	31
391.727	34
392.962	32
394.195	36
395.428	32
396.663	31
397.895	33
399.128	32
400.361	37
401.593	27
402.825	34
404.058	28
405.29	38
406.521	29
407.752	30
408.985	35
410.215	32
411.446	33
412.678	35
413.908	34
415.138	35
416.367	31
417.597	34
418.828	35
420.057	32
421.286	36
422.514	33
423.743	36
424.973	35
426.201	36
427.429	29
428.657	28
429.884	24
431.112	34
432.34	34
433.567	35
434.794	33
436.02	32
437.247	35
438.473	32
439.699	34
440.925	34
442.15	35
443.376	39
444.601	32
445.826	30
447.051	34
448.275	30
449.5	36
450.724	32
451.948	29
453.172	30
454.396	33
455.619	34
456.842	30
458.065	31
459.288	31
460.511	31
461.733	30
462.956	35
464.178	32
465.4	32
466.621	33
467.843	36
469.064	40
470.285	34
471.505	33
472.726	41
473.946	41
475.166	42
476.387	42
477.606	37
478.825	38
480.044	42
481.264	46
482.483	47
483.702	49
484.921	51
486.138	56
487.356	59
488.574	49
489.792	61
491.009	60
492.226	49
493.444	54
494.661	54
495.877	51
497.094	44
498.31	53
499.525	38
500.741	41
501.958	44
503.172	43
504.388	42
505.603	46
506.817	40
508.032	39
509.247	39
510.46	38
511.675	36
512.888	39
514.102	38
515.316	37
516.528	42
517.742	34
518.954	32
520.167	34
521.378	33
522.591	37
523.802	32
525.015	36
526.226	30
527.438	36
528.648	33
529.86	36
531.07	35
532.281	40
533.491	34
534.702	40
535.911	41
537.121	36
538.33	34
539.54	32
540.749	32
541.957	36
543.167	34
544.375	32
545.584	35
546.791	34
547.999	34
549.207	29
550.414	28
551.621	31
552.829	33
554.035	28
555.241	36
556.449	32
557.655	38
558.86	37
560.066	38
561.272	32
562.477	34
563.682	34
564.888	31
566.093	33
567.297	32
568.501	34
569.705	30
570.91	30
572.114	35
573.317	28
574.52	34
575.723	27
576.927	38
578.13	32
579.332	32
580.535	31
581.737	34
582.938	32
584.14	35
585.343	33
586.544	31
587.745	28
588.946	37
590.147	29
591.347	32
592.548	34
593.748	32
594.948	30
596.147	32
597.347	31
598.546	34
599.745	30
600.944	32
602.143	33
603.342	41
604.54	35
605.738	33
606.937	32
608.134	31
609.332	35
610.529	35
611.727	37
612.924	33
614.121	34
615.317	33
616.513	32
617.709	34
618.905	35
620.101	37
621.297	38
622.492	34
623.688	37
624.883	28
626.077	31
627.271	36
628.466	37
629.66	31
630.855	32
632.047	34
633.241	33
634.435	33
635.629	34
636.82	31
638.014	32
639.207	34
640.399	32
641.59	34
642.783	35
643.975	34
645.166	40
646.357	36
647.549	28
648.741	38
649.93	38
651.122	35
652.311	28
653.502	37
654.692	32
655.881	34
657.071	34
658.261	35
659.45	35
660.639	36
661.827	34
663.016	31
664.204	34
665.393	34
666.581	31
667.769	33
668.957	41
670.143	35
671.331	32
672.518	38
673.705	41
674.891	35
676.078	38
677.264	30
678.451	39
679.636	32
680.821	42
682.007	33
683.192	37
684.378	40
685.562	41
686.747	42
687.931	38
689.115	34
690.3	40
691.483	38
692.666	30
693.851	34
695.034	37
696.216	32
697.4	35
698.582	36
699.764	40
700.948	39
702.129	37
703.311	41
704.493	42
705.674	44
706.855	45
708.036	49
709.218	48
710.399	52
711.579	50
712.759	45
713.939	48
715.12	37
716.299	40
717.478	42
718.657	37
719.836	39
721.015	35
722.195	45
723.373	34
724.552	30
725.729	30
726.907	33
728.085	33
729.262	37
730.44	31
731.617	40
732.795	31
733.972	35
735.148	39
736.324	36
737.501	39
738.677	34
739.852	32
741.028	31
742.203	32
743.379	38
744.554	36
745.729	38
746.903	33
748.078	30
749.252	32
750.426	34
751.599	36
752.772	30
753.946	31
755.119	32
756.293	35
757.466	32
758.639	29
759.811	28
760.984	28
762.155	34
763.327	30
764.499	28
765.67	30
766.842	33
768.013	38
769.183	34
770.354	40
771.525	32
772.696	36
773.865	34
775.035	34
776.205	40
777.375	31
778.544	29
779.713	35
780.882	32
782.052	34
783.219	33
784.388	39
785.557	38
786.724	36
787.892	30
789.06	34
790.227	35
791.395	34
792.562	32
793.728	38
794.895	34
796.061	35
797.228	35
798.395	32
799.56	39
800.726	31
801.891	27
803.057	40
804.221	30
805.387	30
806.551	34
807.716	35
808.879	33
810.044	34
811.208	34
812.372	36
813.535	36
814.699	34
815.862	34
817.025	36
818.188	32
819.351	37
820.513	31
821.675	35
822.837	34
823.999	36
825.161	34
826.322	32
827.483	35
828.645	32
829.805	33
830.966	32
832.127	30
833.287	30
834.447	32
835.607	34
836.767	34
837.926	36
839.085	32
840.245	30
841.404	31
842.562	35
843.72	41
844.88	31
846.038	37
847.195	34
848.353	30
849.512	40
850.669	34
851.826	30
852.983	33
854.139	30
855.296	35
856.453	38
857.609	33
858.765	31
859.921	34
861.077	38
862.232	34
863.387	32
864.542	38
865.697	36
866.852	35
868.008	36
869.162	35
870.316	34
871.47	34
872.624	34
873.778	28
874.931	34
876.084	38
877.237	36
878.39	34
879.543	33
880.695	35
881.846	32
882.999	30
884.151	32
885.302	38
886.454	30
887.606	32
888.757	22
889.908	30
891.059	32
892.21	36
893.359	37
894.509	34
895.659	36
896.81	34
897.959	33
899.109	31
900.257	32
901.407	33
902.556	33
903.705	31
904.854	26
906.001	31
907.149	29
908.298	33
909.446	32
910.592	28
911.74	34
912.888	31
914.034	31
915.181	34
916.328	33
917.473	29
918.62	37
919.766	34
920.911	29
922.058	33
923.204	34
924.348	33
925.494	38
926.638	33
927.783	36
928.928	32
930.072	34
931.216	37
932.36	33
933.504	33
934.647	31
935.791	28
936.933	33
938.077	36
939.219	32
940.363	32
941.504	36
942.647	28
943.789	32
944.932	33
946.073	36
947.215	27
948.356	38
949.498	34
950.638	28
951.778	31
952.92	34
954.06	30
955.199	34
956.34	30
957.479	33
958.62	33
959.759	36
960.898	33
962.038	33
963.176	33
964.315	32
965.453	32
966.592	28
967.73	32
968.867	29
970.006	29
971.144	33.5
972.281	35
973.418	34
974.554	34
975.692	33
976.829	34
977.965	33
979.101	31
980.237	34
981.374	28
982.509	31
983.645	31
984.78	32
985.915	34
987.05	32
988.184	30
989.319	35
990.453	28
991.589	32
992.722	28
993.856	31
994.99	32
996.123	28
997.257	33
998.39	38
999.523	34
1000.66	34
1001.79	29
1002.92	37
1004.05	27
1005.18	30
1006.32	35
1007.45	28
1008.58	32
1009.71	34
1010.84	35
1011.97	32
1013.1	34
1014.23	34
1015.36	30
1016.49	31
1017.62	31
1018.75	31
1019.88	31
1021.01	32
1022.14	32
1023.27	33
1024.4	34
1025.53	37
1026.66	31
1027.79	31
1028.91	29
1030.04	32
1031.17	35
1032.3	33
1033.42	32
1034.55	33
1035.68	29
1036.81	31
1037.93	27
1039.06	30
1040.18	34
1041.31	32
1042.44	31
1043.56	34
1044.69	32
1045.81	25
1046.94	36
1048.06	32
1049.19	25
1050.31	30
1051.44	35
1052.56	31
1053.69	34
1054.81	29
1055.93	33
1057.06	30
1058.18	28
1059.3	30
1060.43	33
1061.55	32
1062.67	31
1063.79	28
1064.92	34
1066.04	28
1067.16	30
1068.28	32
1069.4	32
1070.52	26
1071.65	30
1072.77	27
1073.89	35
1075.01	33
1076.13	30
1077.25	36
1078.37	38
1079.49	28
1080.61	29
1081.73	32
1082.85	30
1083.97	33
1085.09	35
1086.2	29
1087.32	33
1088.44	30
1089.56	30
1090.68	33
1091.8	31
1092.91	28
1094.03	31
1095.15	31
1096.26	32
1097.38	27
1098.5	30
1099.61	32
1100.73	30
1101.85	31
1102.96	35
1104.08	32
1105.19	33
1106.31	32
1107.43	36
1108.54	29
1109.66	32
1110.77	32
1111.88	33
1113	33
1114.11	30
1115.23	33
1116.34	35
1117.46	29
1118.57	30
1119.68	31
1120.8	28
1121.91	35
1123.02	32
1124.13	28
1125.25	32
1126.36	24
1127.47	34
1128.58	35
1129.69	32
1130.8	27
1131.92	26
1133.03	30
1134.14	31
1135.25	28
1136.36	31
1137.47	32
1138.58	28
1139.69	30
1140.8	32
1141.91	28
1143.02	32
1144.13	31
1145.24	32
1146.35	32
1147.46	32
1148.56	27
1149.67	32
1150.78	29
1151.89	35
1153	33
1154.1	28
1155.21	33
1156.32	27
1157.43	22
1158.53	27
1159.64	30
1160.75	29
1161.85	34
1162.96	32
1164.07	36
1165.17	33
1166.28	34
1167.38	34
1168.49	27
1169.59	28
1170.7	29
1171.8	33
1172.91	28
1174.01	30
1175.12	32
1176.22	28
1177.32	27
1178.43	30
1179.53	32
1180.64	29
1181.74	27
1182.84	29
1183.94	28
1185.05	32
1186.15	26
1187.25	29
1188.35	32
1189.46	28
1190.56	28
1191.66	28
1192.76	34
1193.86	29
1194.96	32
1196.06	32.0098
1197.16	31.9298
1198.26	31.8372
1199.37	33.7941
1200.47	30.9162
1201.57	32.6618
1202.67	28.7503
1203.77	28.7006
1204.86	28.7604
1205.96	27.7055
1207.06	29.6599
1208.16	26.1556
1209.26	27.698
1210.36	30.0061
1211.46	31.9277
1212.56	30.848
1213.65	29.1618
1214.75	32.9791
1215.85	27.1104
1216.95	28.4548
1218.04	27.9951
1219.14	31.991
1220.24	27.6453
1221.33	29.8855
1222.43	27.2576
1223.53	26.4506
1224.62	27.4324
1225.72	28.0867
1226.82	29.5129
1227.91	30.14
1229.01	30.0344
1230.1	26
1231.2	27.3627
1232.29	28.2847
1233.39	26.8139
1234.48	26.3922
1235.58	28.858
1236.67	28.9763
1237.77	29.6978
1238.86	31.522
1239.95	26.8762
1241.05	28.9511
1242.14	27.4297
1243.23	29.5962
1244.33	31.2585
1245.42	24.6497
1246.51	28.586
1247.61	31.3593
1248.7	26.7902
1249.79	29.8676
1250.88	28.6284
1251.97	30.0428
1253.07	27.5765
1254.16	31.165
1255.25	31.3379
1256.34	31.8126
1257.43	30.5046
1258.52	29.6667
1259.61	31.078
1260.7	28.0006
1261.79	27.6851
1262.88	32.8191
1263.97	29.668
1265.06	29.0126
1266.15	26.9644
1267.24	30.8332
1268.33	30.8598
1269.42	29.8472
1270.51	27.6422
1271.6	28.557
1272.68	29.6396
1273.77	24.5214
1274.86	25.7609
1275.95	27.6765
1277.04	26.8489
1278.12	29.1456
1279.21	26.9426
1280.3	23.599
1281.39	28.6085
1282.47	28.9254
1283.56	28.5031
1284.65	26.2323
1285.73	28.2863
1286.82	28.8624
1287.91	29.6125
1288.99	30.7068
1290.08	29.1325
1291.16	28.3948
1292.25	29.3904
1293.33	24.7303
1294.42	26.7032
1295.5	30.6688
1296.59	28.7956
1297.67	28.1667
1298.76	28.6084
1299.84	30.4339
1300.92	26.2696
1302.01	26.5061
1303.09	29.7194
1304.17	28.0126
1305.26	28.8667
1306.34	27.0872
1307.34	28
1308.43	28
1309.52	24
1310.61	29
1311.7	29
1312.78	26
1313.87	26
1314.96	26
1316.04	31
1317.13	27
1318.22	30
1319.3	31
1320.39	27
1321.48	23
1322.56	28
1323.65	32
1324.73	24
1325.82	30
1326.9	26
1327.99	26
1329.07	28
1330.16	32
1331.24	26
1332.33	25
1333.41	30
1334.5	28
1335.58	24
1336.66	29
1337.75	28
1338.83	22
1339.91	22
1341	34
1342.08	31
1343.16	31
1344.24	31
1345.33	30
1346.41	32
1347.49	24
1348.57	25
1349.65	25
1350.74	29
1351.82	26
1352.9	24
1353.98	29
1355.06	35
1356.14	30
1357.22	28
1358.3	24
1359.38	30
1360.46	28
1361.54	24
1362.62	27
1363.7	24
1364.78	33
1365.86	24
1366.94	24
1368.02	28
1369.09	28
1370.17	26
1371.25	32
1372.33	24
1373.41	24
1374.48	26
1375.56	26
1376.64	30
1377.72	30
1378.79	32
1379.87	28
1380.95	32
1382.02	28
1383.1	30
1384.17	33
1385.25	28
1386.33	30
1387.4	28
1388.48	29
1389.55	29
1390.63	26
1391.7	30
1392.78	28
1393.85	31
1394.93	31
1396	30
1397.07	30
1398.15	26
1399.22	31
1400.3	31
1401.37	32
1402.44	30
1403.52	31
1404.59	33
1405.66	25
1406.73	35
1407.81	32
1408.88	28
1409.95	32
1411.02	34
1412.09	31
1413.17	32
1414.24	34
1415.31	32
1416.38	35
1417.45	34
1418.52	35
1419.59	31
1420.66	35
1421.73	28
1422.8	32
1423.87	32
1424.94	29
1426.01	32
1427.08	36
1428.15	28
1429.22	29
1430.29	26
1431.35	30
1432.42	26
1433.49	24
1434.56	31
1435.63	28
1436.69	30
1437.76	28
1438.83	32
1439.9	28
1440.96	26
1442.03	29
1443.1	30
1444.17	29
1445.23	28
1446.3	32
1447.36	22
1448.43	28
1449.49	27
1450.56	33
1451.63	32
1452.69	28
1453.76	31
1454.82	26
1455.89	33
1456.95	30
1458.01	26
1459.08	28
1460.14	27
1461.21	28
1462.27	33
1463.34	32
1464.4	28
1465.46	31
1466.52	28
1467.59	29
1468.65	24
1469.71	25
1470.77	29
1471.84	25
1472.9	30
1473.96	30
1475.02	29
1476.08	26
1477.15	34
1478.21	28
1479.27	32
1480.33	24
1481.39	29
1482.45	32
1483.51	26
1484.57	32
1485.63	31
1486.69	34
1487.75	28
1488.81	28
1489.87	28
1490.93	28
1491.99	29
1493.05	28
1494.1	30
1495.16	29
1496.22	32
1497.28	34
1498.34	24
1499.4	28
1500.45	31
1501.51	29
1502.57	28
1503.63	27
1504.68	27
1505.74	22
1506.8	28
1507.85	29
1508.91	30
1509.97	29
1511.02	22
1512.08	37
1513.13	24
1514.19	30
1515.24	31
1516.3	28
1517.35	26
1518.41	31
1519.46	22
1520.52	28
1521.57	26
1522.63	29
1523.68	30
1524.73	29
1525.79	22
1526.84	28
1527.9	28
1528.95	30
1530	28
1531.05	35
1532.11	33
1533.16	28
1534.21	31
1535.26	34
1536.32	29
1537.37	32
1538.42	32
1539.47	30
1540.52	28
1541.57	28
1542.63	29
1543.68	28
1544.73	28
1545.78	32
1546.83	29
1547.88	29
1548.93	33
1549.98	32
1551.03	31
1552.08	31
1553.13	22
1554.18	32
1555.23	28
1556.27	29
1557.32	22
1558.37	30
1559.42	28
1560.47	24
1561.52	28
1562.56	31
1563.61	26
1564.66	30
1565.71	32
1566.75	28
1567.8	31
1568.85	30
1569.9	30
1570.94	26
1571.99	29
1573.03	24
1574.08	31
1575.13	28
1576.17	33
1577.22	30
1578.26	27
1579.31	26
1580.35	32
1581.4	26
1582.44	26
1583.49	26
1584.53	28
1585.58	30
1586.62	31
1587.66	29
1588.71	30
1589.75	29
1590.8	33
1591.84	32
1592.88	29
1593.92	24
1594.97	30
1596.01	24
1597.05	24
1598.1	28
1599.14	24
1600.18	31
1601.22	33
1602.26	31
1603.3	26
1604.35	30
1605.39	29
1606.43	29
1607.47	25
1608.51	26
1609.55	31
1610.59	32
1611.63	24
1612.67	32
1613.71	28
1614.75	31
1615.79	34
1616.83	30
1617.87	30
1618.91	24
1619.95	30
1620.99	30
1622.02	24
1623.06	30
1624.1	30
1625.14	29
1626.18	28
1627.21	27
1628.25	28
1629.29	31
1630.33	25
1631.36	24
1632.4	25
1633.44	28
1634.48	32
1635.51	26
1636.55	26
1637.58	26
1638.62	27
1639.66	31
1640.69	22
1641.73	33
1642.76	29
1643.8	28
1644.83	25
1645.87	27
1646.9	28
1647.94	33
1648.97	28
1650	30
1651.04	32
1652.07	28
1653.11	28
1654.14	29
1655.17	26
1656.21	28
1657.24	23
1658.27	27
1659.31	30
1660.34	28
1661.37	24
1662.4	23
1663.43	29
1664.47	29
1665.5	27
1666.53	28
1667.56	29
1668.59	32
1669.62	28
1670.66	25
1671.69	30
1672.72	26
1673.75	33
1674.78	32
1675.81	30
1676.84	28
1677.87	28
1678.9	29
1679.93	31
1680.96	29
1681.98	29
1683.01	28
1684.04	26
1685.07	29
1686.1	23
1687.13	28
1688.16	32
1689.18	32
1690.21	28
1691.24	28
1692.27	29
1693.3	29
1694.32	27
1695.35	26
1696.38	25
1697.4	26
1698.43	22
1699.46	29
1700.48	23
1701.51	34
1702.54	24
1703.56	32
1704.59	28
1705.61	29
1706.64	27
1707.66	27
1708.69	26
1709.71	31
1710.74	30
1711.76	30
1712.79	27
1713.81	27
1714.83	34
1715.86	27
1716.88	27
1717.91	27
1718.93	30
1719.95	31
1720.98	32
1722	28
1723.02	28
1724.04	29
1725.07	32
1726.09	30
1727.11	35
1728.13	34
1729.15	24
1730.18	30
1731.2	30
1732.22	30
1733.24	29
1734.26	29
1735.28	32
1736.3	30
1737.32	33
1738.34	31
1739.36	31
1740.38	30
1741.4	24
1742.42	30
1743.44	30
1744.46	26
1745.48	36
1746.5	27
1747.52	34
1748.54	27
1749.56	31
1750.58	31
1751.6	28
1752.61	32
1753.63	24
1754.65	26
1755.67	30
1756.68	34
1757.7	30
1758.72	35
1759.74	31
1760.75	27
1761.77	28
1762.79	29
1763.8	24
1764.82	29
1765.83	25
1766.85	31
1767.87	28
1768.88	26
1769.9	35
1770.91	30
1771.93	30
1772.94	28
1773.96	24
1774.97	24
1775.99	27
1777	29
1778.02	28
1779.03	32
1780.04	22
1781.06	29
1782.07	24
1783.09	33
1784.1	30
1785.11	32
1786.13	28
1787.14	22
1788.15	31
1789.16	24
1790.18	30
1791.19	31
1792.2	32
1793.21	27
1794.22	32
1795.23	34
1796.25	26
1797.26	27
1798.27	24
1799.28	24
1800.29	28
1801.3	30
1802.31	28
1803.32	35
1804.33	26
1805.34	31
1806.35	28
1807.36	29
1808.37	26
1809.38	29
1810.39	32
1811.4	29
1812.41	28
1813.42	30
1814.42	26
1815.43	28
1816.44	29
1817.45	26
1818.46	31
1819.47	26
1820.47	28
1821.48	29
1822.49	28
1823.49	29
1824.5	28
1825.51	30
1826.52	29
1827.52	28
1828.53	29
1829.53	24
1830.54	26
1831.55	31
1832.55	26
1833.56	20
1834.56	30
1835.57	28
1836.57	30
1837.58	24
1838.58	32
1839.59	30
1840.59	33
1841.6	27
1842.6	27
1843.61	24
1844.61	30
1845.61	31
1846.62	28
1847.62	28
1848.62	31
1849.63	24
1850.63	18
1851.63	31
1852.64	30
1853.64	24
1854.64	30
1855.64	25
1856.64	30
1857.65	25
1858.65	28
1859.65	31
1860.65	31
1861.65	24
1862.65	26
1863.65	27
1864.66	23
1865.66	26
1866.66	30
1867.66	30
1868.66	28
1869.66	28
1870.66	28
1871.66	34
1872.66	30
1873.66	30
1874.66	26
1875.65	31
1876.65	28
1877.65	27
1878.65	26
1879.65	29
1880.65	28
1881.65	30
1882.64	26
1883.64	30
1884.64	32
1885.64	28
1886.63	29
1887.63	28
1888.63	28
1889.63	24
1890.62	31
1891.62	29
1892.62	30
1893.61	28
1894.61	27
1895.6	30
1896.6	24
1897.6	32
1898.59	29
1899.59	28
1900.58	30
1901.58	27
1902.57	28
1903.57	25
1904.56	30
1905.56	28
1906.55	22
1907.54	26
1908.54	26
1909.53	30
1910.53	31
1911.52	28
1912.51	26
1913.51	25
1914.5	24
1915.49	27
1916.49	23
1917.48	25
1918.47	31
1919.46	27
1920.46	28
1921.45	29
1922.44	32
1923.43	28
1924.42	27
1925.41	31
1926.41	25
1927.4	30
1928.39	28
1929.38	28
1930.37	32
1931.36	29
1932.35	30
1933.34	22
1934.33	26
1935.32	24
1936.31	32
1937.3	24
1938.29	25
1939.28	30
1940.27	22
1941.26	28
1942.24	28
1943.23	26
1944.22	23
1945.21	27
1946.2	28
1947.19	26
1948.17	30
1949.16	20
1950.15	23
1951.14	26
1952.12	29
1953.11	30
1954.1	30
1955.09	20
1956.07	24
1957.06	25
1958.05	26
1959.03	26
1960.02	26
1961	26
1961.99	31
1962.98	24
1963.96	26
1964.95	30
1965.93	30
1966.92	26
1967.9	28
1968.89	26
1969.87	30
1970.85	32
1971.84	28
1972.82	21
1973.81	28
1974.79	28
1975.78	22
1976.76	28
1977.74	26
1978.73	28
1979.71	25
1980.69	30
1981.67	27
1982.66	26
1983.64	28
1984.62	24
1985.6	22
1986.59	33
1987.57	24
1988.55	25
1989.53	30
1990.51	28
1991.49	23
1992.47	22
1993.45	27
1994.44	26
1995.42	31
1996.4	29
1997.38	29
1998.36	27
1999.34	27
2000.32	29
2001.3	24
2002.28	20
2003.26	24
2004.24	24
2005.22	28
2006.19	26
2007.17	27
2008.15	29
2009.13	26
2010.11	32
2011.09	23
2012.06	26
2013.04	23
2014.02	28
2015	30
2015.98	28
2016.95	29
2017.93	30
2018.91	29
2019.88	26
2020.86	30
2021.84	28
2022.81	26
2023.79	24
2024.77	26
2025.74	28
2026.72	29
2027.69	26
2028.67	22
2029.65	29
2030.62	27
2031.6	24
2032.57	26
2033.55	23
2034.52	28
2035.5	23
2036.47	29
2037.44	25
2038.42	27
2039.39	30
2040.36	28
2041.34	28
2042.31	26
2043.29	23
2044.26	29
2045.23	27
2046.2	28
2047.18	30
2048.15	27
2049.12	28
2050.09	29
2051.07	30
2052.04	27
2053.01	31
2053.98	26
2054.95	22
2055.93	26
2056.9	26
2057.87	28
2058.84	26
2059.81	28
2060.78	27
2061.75	32
2062.72	29
2063.69	27
2064.66	24
2065.63	32
2066.6	24
2067.57	21
2068.54	25
2069.51	28
2070.48	28
2071.45	31
2072.42	29
2073.38	26
2074.35	25
2075.32	28
2076.29	28
2077.26	26
2078.23	26
2079.19	28
2080.16	28
2081.13	24
2082.1	26
2083.06	26
2084.03	26
2085	28
2085.96	26
2086.93	28
2087.9	30
2088.86	24
2089.83	22
2090.8	27
2091.76	27
2092.73	26
2093.69	24
2094.66	31
2095.62	24
2096.59	28
2097.55	27
2098.52	26
2099.48	29
2100.45	25
2101.41	26
2102.38	31
2103.34	26
2104.31	28
2105.27	20
2106.23	24
2107.2	24
2108.16	29
2109.12	24
2110.09	26
2111.05	26
2112.01	29
2112.98	28
2113.94	18
2114.9	30
2115.86	22
2116.82	29
2117.79	20
2118.75	30
2119.71	24
2120.67	30
2121.63	26
2122.59	26
2123.55	24
2124.52	23
2125.48	30
2126.44	29
2127.4	18
2128.36	24
2129.32	27
2130.28	26
2131.24	20
2132.2	30
2133.16	22
2134.12	26
2135.08	22
2136.04	25
2136.99	26
2137.95	31
2138.91	25
2139.87	22
2140.83	31
2141.79	22
2142.75	22
2143.7	29
2144.66	26
2145.62	29.9883
2146.58	24.008
2147.53	27.0756
2148.49	29.0546
2149.45	26.9559
2150.41	28.8382
2151.36	26.9278
2152.32	27.7281
2153.27	27.1481
2154.23	25.9214
2155.19	26.1774
2156.14	25.5584
2157.1	28.3873
2158.06	20.5498
2159.01	27.2732
2159.97	25.1326
2160.92	23.3629
2161.88	27.3137
2162.83	23.1835
2163.79	26
2164.74	24.602
2165.7	27.5804
2166.65	27.1239
2167.61	31.5114
2168.56	28.3033
2169.51	27.9852
2170.47	24.5374
2171.42	23.5041
2172.38	28.3783
2173.33	23.1712
2174.28	26.8482
2175.24	21.5499
2176.19	25.1942
2177.14	26
2178.09	24.3992
2179.05	27.862
2180	22.1804
2180.95	24.2312
2181.9	25.9514
2182.86	23.5431
2183.81	27.8327
2184.76	27.2758
2185.71	28.3333
2186.66	24.4779
2187.61	23.6904
2188.57	30.265
2189.52	23.642
2190.47	21.1937
2191.42	23.951
2192.37	22.2205
2193.32	27.6231
2194.27	25.5868
2195.22	28.6859
2196.17	26.442
2197.12	27.1025
2198.07	28.1983
2199.02	25.3022
2199.97	25.2749
2200.92	27.0796
2201.87	26.4167
2202.82	25.8745
2203.76	22.8088
2204.71	26.6889
2205.66	25.901
2206.61	26.4879
2207.56	26.5985
2208.51	23.1045
2209.45	26.1631
2210.4	29.7143
2211.35	28.3428
2212.3	27.845
2213.24	28.1858
2214.19	22.9804
2215.14	26.6899
2216.09	27.9608
2217.03	26.5549
2217.98	26.9349
2218.93	29.341
2219.87	22.7742
2220.82	22.5039
2221.77	22.8773
2222.71	24.299
2223.66	25.2881
2224.6	25.4488
2225.55	28.1461
2226.49	27.4153
2227.44	26.8619
2228.38	27.8437
2229.33	25.8199
2230.27	24.187
2231.22	24.8063
2232.16	23.6113
2233.11	24.0873
2234.05	27.3057
2235	27.7794
2235.94	24.1832
2236.88	23.8276
2237.83	23.1912
2238.77	25.6521
2239.71	25.6759
2240.66	22.8921
2241.6	22.0196
2242	22
2242.95	28
2243.9	21
2244.84	27
2245.79	26
2246.74	27
2247.69	24
2248.63	25
2249.58	26
2250.53	28
2251.47	24
2252.42	28
2253.37	26
2254.31	22
2255.26	28
2256.2	27
2257.15	22
2258.1	26
2259.04	24
2259.99	20
2260.93	30
2261.88	25
2262.82	26
2263.77	27
2264.71	26
2265.65	23
2266.6	26
2267.54	25
2268.49	30
2269.43	26
2270.38	26
2271.32	30
2272.26	29
2273.21	24
2274.15	26
2275.09	29
2276.04	28
2276.98	21
2277.92	26
2278.86	27
2279.81	25
2280.75	26
2281.69	24
2282.63	30
2283.57	28
2284.52	26
2285.46	24
2286.4	24
2287.34	25
2288.28	22
2289.22	26
2290.16	20
2291.1	28
2292.04	24
2292.98	26
2293.93	24
2294.86	24
2295.8	27
2296.74	25
2297.69	33
2298.62	28
2299.56	26
2300.5	25
2301.44	27
2302.38	25
2303.32	24
2304.26	26
2305.2	26
2306.14	26
2307.07	22
2308.01	27
2308.95	22
2309.89	31
2310.83	20
2311.76	23
2312.7	26
2313.64	26
2314.58	28
2315.51	26
2316.45	25
2317.39	24
2318.32	29
2319.26	26
2320.2	25
2321.13	27
2322.07	27
2323	28
2323.94	26
2324.88	24
2325.81	28
2326.75	27
2327.68	27
2328.62	26
2329.55	24
2330.49	22
2331.42	31
2332.36	22
2333.29	26
2334.22	25
2335.16	24
2336.09	24
2337.03	30
2337.96	22
2338.89	28
2339.83	30
2340.76	27
2341.69	29
2342.63	22
2343.56	26
2344.49	30
2345.43	22
2346.36	30
2347.29	26
2348.22	18
2349.15	31
2350.09	30
2351.02	26
2351.95	27
2352.88	28
2353.81	24
2354.74	24
2355.67	28
2356.61	28
2357.54	21
2358.47	24
2359.4	24
2360.33	26
2361.26	30
2362.19	24
2363.12	32
2364.05	24
2364.98	26
2365.91	20
2366.84	28
2367.77	28
2368.7	26
2369.62	27
2370.55	30
2371.48	26
2372.41	27
2373.34	22
2374.27	28
2375.2	30
2376.12	30
2377.05	27
2377.98	24
2378.91	28
2379.83	26
2380.76	30
2381.69	24
2382.62	28
2383.54	28
2384.47	25
2385.4	26
2386.32	26
2387.25	30
2388.18	28
2389.1	26
2390.03	22
2390.95	25
2391.88	24
2392.81	28
2393.73	25
2394.66	33
2395.58	28
2396.51	29
2397.43	24
2398.36	26
2399.28	24
2400.2	30
2401.13	28
2402.05	30
2402.98	26
2403.9	24
2404.83	28
2405.75	26
2406.67	26
2407.6	27
2408.52	28
2409.44	24
2410.37	33
2411.29	23
2412.21	26
2413.13	24
2414.06	26
2414.98	28
2415.9	26
2416.82	27
2417.74	28
2418.67	25
2419.59	30
2420.51	27
2421.43	30
2422.35	26
2423.27	28
2424.19	26
2425.11	32
2426.03	26
2426.96	28
2427.88	28
2428.8	25
2429.72	27
2430.64	24
2431.56	28
2432.48	24
2433.39	29
2434.31	25
2435.23	27
2436.15	27
2437.07	24
2437.99	26
2438.91	30
2439.83	29
2440.75	22
2441.67	29
2442.58	33
2443.5	32
2444.42	26
2445.34	29
2446.26	22
2447.17	28
2448.09	29
2449.01	25
2449.92	28
2450.84	22
2451.76	28
2452.68	27
2453.59	26
2454.51	29
2455.42	25
2456.34	28
2457.26	30
2458.17	22
2459.09	28
2460	28
2460.92	30
2461.83	30
2462.75	28
2463.66	26
2464.58	28
2465.49	26
2466.41	26
2467.32	27
2468.24	29
2469.15	28
2470.07	32
2470.98	28
2471.89	28
2472.81	26
2473.72	22
2474.64	30
2475.55	30
2476.46	28
2477.37	24
2478.29	24
2479.2	27
2480.11	28
2481.03	24
2481.94	32
2482.85	31
2483.76	28
2484.67	28
2485.59	26
2486.5	26
2487.41	25
2488.32	31
2489.23	30
2490.14	31
2491.05	24
2491.97	26
2492.88	31
2493.79	30
2494.7	30
2495.61	26
2496.52	27
2497.43	27
2498.34	27
2499.25	26
2500.16	25
2501.07	27
2501.98	26
2502.89	32
2503.79	29
2504.7	24
2505.61	29
2506.52	26
2507.43	22
2508.34	32
2509.25	24
2510.16	26
2511.06	28
2511.97	30
2512.88	25
2513.79	22
2514.69	30
2515.6	28
2516.51	22
2517.42	26
2518.32	32
2519.23	29
2520.14	28
2521.04	24
2521.95	25
2522.86	31
2523.76	28
2524.67	23
2525.57	29
2526.48	26
2527.39	32
2528.29	29
2529.2	27
2530.1	27
2531.01	28
2531.91	26
2532.82	31
2533.72	22
2534.63	30
2535.53	26
2536.44	24
2537.34	27
2538.24	31
2539.15	32
2540.05	27
2540.96	30
2541.86	28
2542.76	27
2543.67	27
2544.57	30
2545.47	31
2546.37	26
2547.28	22
2548.18	26
2549.08	26
2549.99	27
2550.89	25
2551.79	30
2552.69	28
2553.59	28
2554.49	29
2555.4	24
2556.3	26
2557.2	26
2558.1	28
2559	29
2559.9	29
2560.8	28
2561.7	27
2562.6	27
2563.5	22
2564.4	28
2565.3	31
2566.2	28
2567.1	28
2568	29
2568.9	30
2569.8	27
2570.7	26
2571.6	26
2572.5	29
2573.4	34
2574.3	29
2575.2	29
2576.1	29
2576.99	24
2577.89	32
2578.79	26
2579.69	22
2580.59	24
2581.48	29
2582.38	28
2583.28	30
2584.18	24
2585.07	26
2585.97	25
2586.87	27
2587.76	33
2588.66	28
2589.56	29
2590.45	22
2591.35	28
2592.25	24
2593.14	28
2594.04	26
2594.93	26
2595.83	18
2596.73	25
2597.62	28
2598.52	29
2599.41	25
2600.31	28
2601.2	27
2602.1	28
2602.99	29
2603.88	28
2604.78	25
2605.67	27
2606.57	28
2607.46	26
2608.35	28
2609.25	31
2610.14	26
2611.03	30
2611.93	28
2612.82	25
2613.71	28
2614.61	28
2615.5	27
2616.39	28
2617.29	27
2618.18	27
2619.07	26
2619.96	27
2620.85	26
2621.75	26
2622.64	33
2623.53	26
2624.42	24
2625.31	36
2626.2	31
2627.09	32
2627.98	28
2628.88	24
2629.77	26
2630.66	28
2631.55	25
2632.44	30
2633.33	24
2634.22	28
2635.11	29
2636	29
2636.89	28
2637.78	28
2638.66	30
2639.55	26
2640.44	24
2641.33	28
2642.22	27
2643.11	25
2644	24
2644.89	26
2645.78	24
2646.66	28
2647.55	26
2648.44	31
2649.33	28
2650.21	26
2651.1	26
2651.99	23
2652.88	29
2653.76	29
2654.65	34
2655.54	27
2656.42	24
2657.31	24
2658.2	20
2659.08	24
2659.97	22
2660.86	26
2661.74	31
2662.63	24
2663.51	29
2664.4	28
2665.29	30
2666.17	20
2667.06	30
2667.94	26
2668.83	29
2669.71	27
2670.6	28
2671.48	26
2672.36	26
2673.25	20
2674.13	24
2675.02	28
2675.9	28
2676.78	31
2677.67	31
2678.55	28
2679.43	29
2680.32	30
2681.2	25
2682.08	26
2682.97	29
2683.85	24
2684.73	28
2685.61	28
2686.5	30
2687.38	29
2688.26	31
2689.14	24
2690.03	23
2690.91	30
2691.79	24
2692.67	26
2693.55	23
2694.43	30
2695.31	27
2696.19	29
2697.08	26
2697.96	26
2698.84	30
2699.72	29
2700.6	26
2701.48	29
2702.36	24
2703.24	30
2704.12	27
2705	25
2705.88	26
2706.76	28
2707.64	20
2708.51	30
2709.39	28
2710.27	24
2711.15	26
2712.03	30
2712.91	31
2713.79	25
2714.67	22
2715.54	26
2716.42	23
2717.3	20
2718.18	29
2719.05	22
2719.93	30
2720.81	28
2721.69	34
2722.56	30
2723.44	25
2724.32	31
2725.19	20
2726.07	30
2726.95	32
2727.82	29
2728.7	28
2729.58	27
2730.45	32
2731.33	26
2732.2	27
2733.08	29
2733.95	28
2734.83	27
2735.7	31
2736.58	30
2737.45	27
2738.33	28
2739.2	26
2740.08	21
2740.95	26
2741.83	22
2742.7	29
2743.58	25
2744.45	24
2745.32	24
2746.2	34
2747.07	27
2747.94	27
2748.82	27
2749.69	26
2750.56	28
2751.44	27
2752.31	22
2753.18	30
2754.05	24
2754.93	31
2755.8	26
2756.67	26
2757.54	28
2758.42	27
2759.29	30
2760.16	27
2761.03	33
2761.9	28
2762.77	26
2763.64	29
2764.51	26
2765.38	25
2766.26	26
2767.13	28
2768	23
2768.87	30
2769.74	27
2770.61	26
2771.48	26
2772.35	28
2773.22	28
2774.09	26
2774.96	28
2775.83	24
2776.7	31
2777.56	27
2778.43	23
2779.3	24
2780.17	27
2781.04	22
2781.91	27
2782.78	31
2783.64	26
2784.51	29
2785.38	29
2786.25	29
2787.12	29
2787.98	22
2788.85	26
2789.72	24
2790.59	30
2791.45	30
2792.32	29
2793.19	23
2794.05	27
2794.92	26
2795.79	29
2796.65	27
2797.52	28
2798.38	31
2799.25	26
2800.12	26
2800.98	27
2801.85	25
2802.71	26
2803.58	29
2804.44	29
2805.31	30
2806.17	28
2807.04	32
2807.9	24
2808.77	23
2809.63	31
2810.5	26
2811.36	33
2812.22	33
2813.09	28
2813.95	27
2814.82	26
2815.68	30
2816.54	24
2817.41	29
2818.27	24
2819.13	33
2820	25
2820.86	28
2821.72	33
2822.58	26
2823.45	25
2824.31	24
2825.17	32
2826.03	24
2826.9	26
2827.76	30
2828.62	25
2829.48	28
2830.34	26
2831.2	26
2832.06	33
2832.92	30
2833.79	28
2834.65	27
2835.51	30
2836.37	28
2837.23	32
2838.09	30
2838.95	31
2839.81	25
2840.67	28
2841.53	35
2842.39	24
2843.25	33
2844.11	30
2844.97	32
2845.83	31
2846.68	26
2847.54	28
2848.4	26
2849.26	28
2850.12	28
2850.98	27
2851.84	24
2852.69	26
2853.55	30
2854.41	31
2855.27	31
2856.13	29
2856.98	24
2857.84	26
2858.7	26
2859.56	28
2860.41	22
2861.27	25
2862.13	31
2862.98	32
2863.84	24
2864.7	25
2865.55	34
2866.41	28
2867.27	28
2868.12	28
2868.98	29
2869.83	28
2870.69	31
2871.54	30
2872.4	29
2873.25	30
2874.11	30
2874.96	31
2875.82	31
2876.68	24
2877.53	30
2878.38	28
2879.24	29
2880.09	32
2880.95	32
2881.8	29
2882.65	32
2883.51	34
2884.36	36
2885.22	30
2886.07	32
2886.92	30
2887.77	41
2888.63	34
2889.48	34
2890.33	32
2891.19	32
2892.04	40
2892.89	39
2893.74	38
2894.6	44
2895.45	45
2896.3	40
2897.15	48
2898	46
2898.85	54
2899.71	46
2900.56	56
2901.41	57
2902.26	57
2903.11	49
2903.96	63
2904.81	58
2905.66	46
2906.51	56
2907.36	58
2908.21	62
2909.06	56
2909.91	53
2910.76	50
2911.61	53
2912.46	54
2913.31	57
2914.16	46
2915.01	42
2915.86	46
2916.71	39
2917.56	41
2918.41	40
2919.26	40
2920.1	37
2920.95	32
2921.8	37
2922.65	37
2923.5	32
2924.34	30
2925.19	34
2926.04	30
2926.89	36
2927.74	26
2928.58	28
2929.43	26
2930.28	30
2931.12	28
2931.97	32
2932.82	32
2933.66	28
2934.51	30
2935.36	26
2936.2	31
2937.05	18
2937.89	30
2938.74	30
2939.59	32
2940.43	32
2941.28	27
2942.12	36
2942.97	29
2943.81	26
2944.66	28
2945.5	28
2946.35	30
2947.19	25
2948.04	32
2948.88	29
2949.72	27
2950.57	32
2951.41	32
2952.26	32
2953.1	33
2953.94	33
2954.79	35
2955.63	31
2956.47	36
2957.32	33
2958.16	38
2959	34
2959.85	32
2960.69	33
2961.53	37
2962.37	42
2963.22	36
2964.06	40
2964.9	40
2965.74	43
2966.58	38
2967.42	36
2968.27	38
2969.11	36
2969.95	34
2970.79	40
2971.63	42
2972.47	40
2973.31	36
2974.15	34
2974.99	30
2975.83	35
2976.68	34
2977.52	38
2978.36	30
2979.2	28
2980.04	31
2980.88	24
2981.71	29
2982.55	30
2983.39	35
2984.23	34
2985.07	29
2985.91	28
2986.75	24
2987.59	26
2988.43	26
2989.27	28
2990.1	26
2990.94	29
2991.78	29
2992.62	32
2993.46	25
2994.3	28
2995.13	24
2995.97	28
2996.81	22
2997.64	29
2998.48	25
2999.32	25
