#Acq. time (s)=	3
#Accumulations=	3
#Range (cm-¹)=	100...3000
#Windows=	3
#Autofocus=	Off
#AutoExposure=	Off
#Spike filter=	Multiple accum.
#Delay time (s)=	0
#Binning=	1
#Readout mode=	Signal
#DeNoise=	Off
#ICS correction=	Off
#Dark correction=	Off
#Inst. Process=	Off
#Instrument=	LabRAM HR Evol
#Detector=	Syncerity OE
#Objective=	x100_VIS_LWD
#Grating=	600 (500nm)
#ND Filter=	25%
#Laser=	633nm_Edge
#Hole=	100.021
#Range=	Visible
#Project=	Bolus
#Sample=	A4
#Site=	stripside
#Title=	m05
#Remark=	
#Date=	03.11.2025 17:22
#Acquired=	03.11.2025 17:22:01
100.969	31
102.252	33
103.535	32
104.818	32
106.101	36
107.384	30
108.666	31
109.948	26
111.232	28
112.514	30
113.795	32
115.077	31
116.358	32
117.639	38
118.919	34
120.2	33
121.48	36
122.76	29
124.04	33
125.32	31
126.599	31
127.879	31
129.158	38
130.436	37
131.715	30
132.992	40
134.27	36
135.548	42
136.826	32
138.104	34
139.381	41
140.658	30
141.935	40
143.212	38
144.489	37
145.763	37
147.04	36
148.315	40
149.591	44
150.867	37
152.142	39
153.416	39
154.691	38
155.965	41
157.24	40
158.514	46
159.786	41
161.06	34
162.334	42
163.607	38
164.881	40
166.152	38
167.425	39
168.698	43
169.969	38
171.241	44
172.513	39
173.785	40
175.055	40
176.326	42
177.597	36
178.867	45
180.137	43
181.408	48
182.677	40
183.947	43
185.217	36
186.485	44
187.755	42
189.022	36
190.291	38
191.56	39
192.828	38
194.096	45
195.363	44
196.631	36
197.899	34
199.165	43
200.432	42
201.698	40
202.965	40
204.23	39
205.497	41
206.762	35
208.028	39
209.293	36
210.559	39
211.823	42
213.088	35
214.352	36
215.617	37
216.88	36
218.145	38
219.408	39
220.672	33
221.934	26
223.196	34
224.46	38
225.722	40
226.985	40
228.246	32
229.508	36
230.77	36
232.031	40
233.292	34
234.554	34
235.814	36
237.074	34
238.335	36
239.595	31
240.854	34
242.115	38
243.374	30
244.633	37
245.893	32
247.151	36
248.409	32
249.667	30
250.927	35
252.184	36
253.442	29
254.699	34
255.957	35
257.214	33
258.47	26
259.727	34
260.983	34
262.24	32
263.496	31
264.752	31
266.007	28
267.262	40
268.517	37
269.773	35
271.028	35
272.282	34
273.536	33
274.79	38
276.044	30
277.297	33
278.551	33
279.804	32
281.057	30
282.31	33
283.564	35
284.816	36
286.068	30
287.32	32
288.572	34
289.823	34
291.074	35
292.325	30
293.576	34
294.827	28
296.077	38
297.328	31
298.578	32
299.828	36
301.077	28
302.325	27
303.575	33
304.824	32
306.073	38
307.321	26
308.57	29
309.818	34
311.066	32
312.314	32
313.562	32
314.808	35
316.055	34
317.302	30
318.549	33
319.796	34
321.042	34
322.288	32
323.533	32
324.779	36
326.024	36
327.27	36
328.515	32
329.759	28
331.004	36
332.248	36
333.493	29
334.736	37
335.98	34
337.223	32
338.466	30
339.709	37
340.952	31
342.195	30
343.437	35
344.68	33
345.922	32
347.163	28
348.405	32
349.647	35
350.887	32
352.128	28
353.37	38
354.609	39
355.85	33
357.089	32
358.33	32
359.57	30
360.809	34
362.049	36
363.287	30
364.526	32
365.764	32
367.003	34
368.241	38
369.479	34
370.718	32
371.955	37
373.193	36
374.429	30
375.667	37
376.903	31
378.139	36
379.376	33
380.611	30
381.848	35
383.083	36
384.319	38
385.554	36
386.79	33
388.024	28
389.258	34
390.493	31
391.727	31
392.962	35
394.195	34
395.428	36
396.663	30
397.895	34
399.128	36
400.361	36
401.593	29
402.825	32
404.058	33
405.29	28
406.521	30
407.752	26
408.985	34
410.215	34
411.446	37
412.678	32
413.908	33
415.138	34
416.367	34
417.597	30
418.828	34
420.057	32
421.286	32
422.514	36
423.743	34
424.973	32
426.201	30
427.429	34
428.657	37
429.884	30
431.112	34
432.34	34
433.567	33
434.794	33
436.02	32
437.247	35
438.473	28
439.699	38
440.925	35
442.15	37
443.376	40
444.601	34
445.826	37
447.051	30
448.275	31
449.5	34
450.724	32
451.948	32
453.172	30
454.396	36
455.619	38
456.842	36
458.065	36
459.288	35
460.511	35
461.733	35
462.956	36
464.178	36
465.4	36
466.621	36
467.843	37
469.064	36
470.285	36
471.505	40
472.726	34
473.946	34
475.166	39
476.387	36
477.606	42
478.825	40
480.044	49
481.264	45
482.483	51
483.702	47
484.921	51
486.138	54
487.356	54
488.574	58
489.792	60
491.009	52
492.226	58
493.444	52
494.661	55
495.877	54
497.094	57
498.31	47
499.525	48
500.741	46
501.958	36
503.172	46
504.388	43
505.603	45
506.817	43
508.032	37
509.247	42
510.46	42
511.675	26
512.888	40
514.102	36
515.316	42
516.528	38
517.742	41
518.954	36
520.167	38
521.378	41
522.591	33
523.802	35
525.015	36
526.226	36
527.438	42
528.648	37
529.86	41
531.07	35
532.281	39
533.491	33
534.702	36
535.911	32
537.121	32
538.33	34
539.54	33
540.749	36
541.957	37
543.167	34
544.375	34
545.584	32
546.791	36
547.999	32
549.207	38
550.414	34
551.621	34
552.829	38
554.035	32
555.241	37
556.449	32
557.655	28
558.86	37
560.066	36
561.272	35
562.477	29
563.682	36
564.888	28
566.093	30
567.297	36
568.501	36
569.705	32
570.91	32
572.114	34
573.317	34
574.52	33
575.723	36
576.927	36
578.13	36
579.332	32
580.535	32
581.737	30
582.938	32
584.14	38
585.343	35
586.544	37
587.745	34
588.946	34
590.147	35
591.347	32
592.548	35
593.748	36
594.948	32
596.147	38
597.347	32
598.546	34
599.745	32
600.944	34
602.143	36
603.342	37
604.54	35
605.738	34
606.937	32
608.134	26
609.332	36
610.529	32
611.727	36
612.924	33
614.121	38
615.317	35
616.513	33
617.709	36
618.905	38
620.101	33
621.297	32
622.492	32
623.688	38
624.883	32
626.077	30
627.271	36
628.466	30
629.66	32
630.855	32
632.047	30
633.241	36
634.435	26
635.629	32
636.82	35
638.014	40
639.207	35
640.399	34
641.59	41
642.783	36
643.975	37
645.166	37
646.357	34
647.549	36
648.741	35
649.93	34
651.122	36
652.311	36
653.502	34
654.692	33
655.881	38
657.071	38
658.261	28
659.45	35
660.639	33
661.827	33
663.016	38
664.204	30
665.393	33
666.581	38
667.769	32
668.957	36
670.143	35
671.331	34
672.518	35
673.705	34
674.891	32
676.078	34
677.264	28
678.451	38
679.636	36
680.821	35
682.007	42
683.192	35
684.378	34
685.562	34
686.747	43
687.931	41
689.115	34
690.3	40
691.483	36
692.666	39
693.851	40
695.034	35
696.216	33
697.4	39
698.582	37
699.764	41
700.948	38
702.129	43
703.311	44
704.493	42
705.674	50
706.855	53
708.036	53
709.218	52
710.399	54
711.579	54
712.759	46
713.939	48
715.12	38
716.299	39
717.478	38
718.657	37
719.836	32
721.015	36
722.195	40
723.373	32
724.552	28
725.729	32
726.907	32
728.085	32
729.262	34
730.44	33
731.617	32
732.795	24
733.972	36
735.148	36
736.324	26
737.501	36
738.677	28
739.852	28
741.028	33
742.203	38
743.379	32
744.554	33
745.729	30
746.903	36
748.078	33
749.252	38
750.426	36
751.599	35
752.772	29
753.946	28
755.119	33
756.293	37
757.466	35
758.639	33
759.811	35
760.984	37
762.155	38
763.327	30
764.499	32
765.67	32
766.842	32
768.013	31
769.183	35
770.354	34
771.525	34
772.696	36
773.865	30
775.035	32
776.205	32
777.375	39
778.544	31
779.713	36
780.882	34
782.052	34
783.219	32
784.388	35
785.557	38
786.724	34
787.892	38
789.06	40
790.227	32
791.395	32
792.562	37
793.728	35
794.895	36
796.061	32
797.228	36
798.395	38
799.56	28
800.726	38
801.891	36
803.057	32
804.221	35
805.387	32
806.551	32
807.716	33
808.879	32
810.044	26
811.208	34
812.372	33
813.535	38
814.699	36
815.862	34
817.025	36
818.188	36
819.351	32
820.513	31
821.675	31
822.837	33
823.999	28
825.161	30
826.322	34
827.483	28
828.645	36
829.805	29
830.966	32
832.127	32
833.287	36
834.447	30
835.607	31
836.767	27
837.926	38
839.085	34
840.245	33
841.404	33
842.562	32
843.72	36
844.88	32
846.038	30
847.195	32
848.353	28
849.512	35
850.669	34
851.826	34
852.983	34
854.139	34
855.296	28
856.453	30
857.609	35
858.765	30
859.921	36
861.077	33
862.232	36
863.387	34
864.542	32
865.697	34
866.852	32
868.008	32
869.162	32
870.316	35
871.47	26
872.624	27
873.778	38
874.931	28
876.084	32
877.237	30
878.39	26
879.543	32
880.695	34
881.846	32
882.999	28
884.151	32
885.302	26
886.454	31
887.606	30
888.757	31
889.908	29
891.059	28
892.21	36
893.359	31
894.509	33
895.659	33
896.81	31
897.959	34
899.109	33
900.257	30
901.407	26
902.556	34
903.705	33
904.854	32
906.001	32
907.149	33
908.298	35
909.446	28
910.592	32
911.74	34
912.888	27
914.034	26
915.181	26
916.328	35
917.473	32
918.62	28
919.766	32
920.911	28
922.058	30
923.204	35
924.348	32
925.494	33
926.638	30
927.783	34
928.928	34
930.072	31
931.216	32
932.36	29
933.504	32
934.647	32
935.791	34
936.933	30
938.077	33
939.219	34
940.363	28
941.504	26
942.647	31
943.789	28
944.932	30
946.073	29
947.215	29
948.356	29
949.498	32
950.638	32
951.778	30
952.92	32
954.06	30
955.199	20
956.34	31
957.479	32
958.62	36
959.759	35
960.898	32
962.038	32
963.176	26
964.315	34
965.453	30
966.592	30
967.73	28
968.867	36
970.006	29
971.144	30
972.281	30
973.418	33
974.554	33
975.692	34
976.829	35
977.965	31
979.101	33
980.237	32
981.374	30
982.509	33
983.645	30
984.78	28
985.915	34
987.05	28
988.184	36
989.319	28
990.453	32
991.589	31
992.722	30
993.856	35
994.99	36
996.123	32
997.257	28
998.39	31
999.523	31
1000.66	29
1001.79	34
1002.92	30
1004.05	33
1005.18	26
1006.32	26
1007.45	27
1008.58	38
1009.71	32
1010.84	29
1011.97	28
1013.1	35
1014.23	28
1015.36	28
1016.49	30
1017.62	30
1018.75	31
1019.88	28
1021.01	24
1022.14	28
1023.27	35
1024.4	30
1025.53	30
1026.66	30
1027.79	34
1028.91	28
1030.04	28
1031.17	29
1032.3	33
1033.42	33
1034.55	29
1035.68	30
1036.81	34
1037.93	36
1039.06	22
1040.18	29
1041.31	33
1042.44	29
1043.56	33
1044.69	30
1045.81	28
1046.94	31
1048.06	27
1049.19	30
1050.31	30
1051.44	26
1052.56	30
1053.69	28
1054.81	34
1055.93	30
1057.06	33
1058.18	32
1059.3	30
1060.43	30
1061.55	34
1062.67	28
1063.79	30
1064.92	31
1066.04	28
1067.16	33
1068.28	30
1069.4	31
1070.52	30
1071.65	26
1072.77	29
1073.89	32
1075.01	29
1076.13	30
1077.25	28
1078.37	27
1079.49	29
1080.61	28
1081.73	32
1082.85	24
1083.97	24
1085.09	30
1086.2	30
1087.32	31
1088.44	31
1089.56	28
1090.68	30
1091.8	30
1092.91	27
1094.03	31
1095.15	33
1096.26	37
1097.38	29
1098.5	24
1099.61	30
1100.73	36
1101.85	32
1102.96	28
1104.08	34
1105.19	30
1106.31	29
1107.43	29
1108.54	32
1109.66	28
1110.77	34
1111.88	34
1113	20
1114.11	30
1115.23	32
1116.34	30
1117.46	26
1118.57	29
1119.68	32
1120.8	33
1121.91	34
1123.02	28
1124.13	29
1125.25	32
1126.36	28
1127.47	32
1128.58	28
1129.69	29
1130.8	26
1131.92	33
1133.03	28
1134.14	28
1135.25	28
1136.36	29
1137.47	31
1138.58	30
1139.69	26
1140.8	28
1141.91	24
1143.02	31
1144.13	34
1145.24	29
1146.35	28
1147.46	28
1148.56	26
1149.67	23
1150.78	30
1151.89	30
1153	28
1154.1	28
1155.21	31
1156.32	32
1157.43	31
1158.53	30
1159.64	28
1160.75	29
1161.85	30
1162.96	28
1164.07	34
1165.17	33
1166.28	25
1167.38	26
1168.49	29
1169.59	31
1170.7	29
1171.8	30
1172.91	31
1174.01	32
1175.12	32
1176.22	31
1177.32	25
1178.43	32
1179.53	23
1180.64	34
1181.74	30
1182.84	26
1183.94	29
1185.05	34
1186.15	30
1187.25	36
1188.35	26
1189.46	34
1190.56	34
1191.66	28
1192.76	29
1193.86	30
1194.96	28
1196.06	31.9706
1197.16	25.9751
1198.26	31.848
1199.37	30.0076
1200.47	28.1279
1201.57	27.9902
1202.67	28.9813
1203.77	31.493
1204.86	27.6875
1205.96	29.961
1207.06	28.1477
1208.16	31.4907
1209.26	28.5668
1210.36	28.2039
1211.46	26.0748
1212.56	29.3796
1213.65	28.6471
1214.75	32.3265
1215.85	29.9175
1216.95	32.4548
1218.04	28
1219.14	33.1293
1220.24	25.9683
1221.33	30.8668
1222.43	33.8165
1223.53	31
1224.62	29.7117
1225.72	28.5392
1226.82	32.517
1227.91	25.5784
1229.01	27.3185
1230.1	28.5377
1231.2	28.4776
1232.29	31.6534
1233.39	28
1234.48	25.3922
1235.58	26.7157
1236.67	29.5862
1237.77	29.5905
1238.86	28.3298
1239.95	29.867
1241.05	27.0634
1242.14	30.3333
1243.23	27.318
1244.33	28.684
1245.42	26.2885
1246.51	29.1974
1247.61	28.572
1248.7	30.7835
1249.79	28.6471
1250.88	28.3394
1251.97	26.3271
1253.07	26.3874
1254.16	28.6804
1255.25	27.3807
1256.34	31.4626
1257.43	28.2231
1258.52	30.7157
1259.61	31.539
1260.7	27.9155
1261.79	29.1782
1262.88	31.3103
1263.97	28.783
1265.06	29.7353
1266.15	29.6679
1267.24	28.8063
1268.33	30.0205
1269.42	28.6641
1270.51	30.0041
1271.6	26.0762
1272.68	26.3648
1273.77	29.6469
1274.86	28.4405
1275.95	30.8483
1277.04	22.8126
1278.12	24.9921
1279.21	26.3127
1280.3	31.3933
1281.39	23.6737
1282.47	26.4412
1283.56	26.9979
1284.65	29.4569
1285.73	28.1999
1286.82	26.9104
1287.91	29.0444
1288.99	28.7785
1290.08	28.196
1291.16	29.942
1292.25	27.5187
1293.33	32.5445
1294.42	27.9893
1295.5	26.857
1296.59	28.3869
1297.67	25.7841
1298.76	24.7132
1299.84	27.6618
1300.92	24.6574
1302.01	27.6314
1303.09	25.438
1304.17	28.2459
1305.26	30
1306.34	29.8502
1307.34	28
1308.43	30
1309.52	27
1310.61	34
1311.7	28
1312.78	31
1313.87	30
1314.96	22
1316.04	30
1317.13	30
1318.22	25
1319.3	26
1320.39	32
1321.48	22
1322.56	32
1323.65	29
1324.73	30
1325.82	26
1326.9	26
1327.99	31
1329.07	28
1330.16	30
1331.24	30
1332.33	29
1333.41	28
1334.5	32
1335.58	28
1336.66	21
1337.75	22
1338.83	28
1339.91	29
1341	32
1342.08	22
1343.16	34
1344.24	28
1345.33	27
1346.41	25
1347.49	34
1348.57	26
1349.65	25
1350.74	30
1351.82	25
1352.9	31
1353.98	30
1355.06	33
1356.14	26
1357.22	36
1358.3	28
1359.38	28
1360.46	22
1361.54	31
1362.62	26
1363.7	27
1364.78	27
1365.86	31
1366.94	27
1368.02	27
1369.09	29
1370.17	26
1371.25	28
1372.33	30
1373.41	32
1374.48	28
1375.56	30
1376.64	24
1377.72	26
1378.79	30
1379.87	29
1380.95	30
1382.02	28
1383.1	29
1384.17	24
1385.25	36
1386.33	28
1387.4	26
1388.48	29
1389.55	32
1390.63	34
1391.7	26
1392.78	27
1393.85	28
1394.93	30
1396	34
1397.07	29
1398.15	30
1399.22	26
1400.3	26
1401.37	36
1402.44	36
1403.52	35
1404.59	32
1405.66	28
1406.73	30
1407.81	33
1408.88	35
1409.95	34
1411.02	32
1412.09	33
1413.17	34
1414.24	36
1415.31	30
1416.38	34
1417.45	31
1418.52	30
1419.59	29
1420.66	32
1421.73	31
1422.8	33
1423.87	34
1424.94	30
1426.01	33
1427.08	32
1428.15	32
1429.22	28
1430.29	24
1431.35	30
1432.42	27
1433.49	33
1434.56	32
1435.63	26
1436.69	32
1437.76	28
1438.83	30
1439.9	30
1440.96	31
1442.03	31
1443.1	26
1444.17	24
1445.23	30
1446.3	28
1447.36	28
1448.43	30
1449.49	27
1450.56	33
1451.63	30
1452.69	30
1453.76	26
1454.82	27
1455.89	28
1456.95	29
1458.01	32
1459.08	27
1460.14	27
1461.21	29
1462.27	32
1463.34	28
1464.4	29
1465.46	30
1466.52	28
1467.59	30
1468.65	24
1469.71	28
1470.77	32
1471.84	33
1472.9	26
1473.96	30
1475.02	34
1476.08	32
1477.15	30
1478.21	31
1479.27	29
1480.33	30
1481.39	26
1482.45	26
1483.51	26
1484.57	28
1485.63	30
1486.69	31
1487.75	30
1488.81	28
1489.87	32
1490.93	26
1491.99	28
1493.05	28
1494.1	32
1495.16	26
1496.22	32
1497.28	28
1498.34	28
1499.4	29
1500.45	33
1501.51	28
1502.57	24
1503.63	26
1504.68	25
1505.74	32
1506.8	29
1507.85	29
1508.91	32
1509.97	28
1511.02	30
1512.08	29
1513.13	33
1514.19	34
1515.24	29
1516.3	34
1517.35	28
1518.41	25
1519.46	31
1520.52	26
1521.57	24
1522.63	32
1523.68	24
1524.73	33
1525.79	28
1526.84	26
1527.9	32
1528.95	27
1530	24
1531.05	30
1532.11	33
1533.16	33
1534.21	31
1535.26	31
1536.32	29
1537.37	29
1538.42	30
1539.47	30
1540.52	33
1541.57	28
1542.63	30
1543.68	31
1544.73	32
1545.78	27
1546.83	32
1547.88	33
1548.93	30
1549.98	29
1551.03	26
1552.08	30
1553.13	31
1554.18	27
1555.23	30
1556.27	29
1557.32	31
1558.37	32
1559.42	28
1560.47	30
1561.52	29
1562.56	30
1563.61	34
1564.66	27
1565.71	32
1566.75	32
1567.8	28
1568.85	33
1569.9	30
1570.94	28
1571.99	31
1573.03	29
1574.08	26
1575.13	28
1576.17	30
1577.22	32
1578.26	27
1579.31	28
1580.35	28
1581.4	31
1582.44	30
1583.49	28
1584.53	26
1585.58	32
1586.62	28
1587.66	32
1588.71	33
1589.75	29
1590.8	25
1591.84	26
1592.88	28
1593.92	30
1594.97	29
1596.01	28
1597.05	26
1598.1	28
1599.14	29
1600.18	26
1601.22	30
1602.26	30
1603.3	23
1604.35	30
1605.39	31
1606.43	26
1607.47	26
1608.51	25
1609.55	33
1610.59	36
1611.63	29
1612.67	31
1613.71	32
1614.75	24
1615.79	24
1616.83	30
1617.87	32
1618.91	29
1619.95	34
1620.99	32
1622.02	30
1623.06	30
1624.1	28
1625.14	22
1626.18	36
1627.21	24
1628.25	26
1629.29	28
1630.33	32
1631.36	31
1632.4	28
1633.44	28
1634.48	26
1635.51	33
1636.55	27
1637.58	24
1638.62	30
1639.66	27
1640.69	28
1641.73	30
1642.76	30
1643.8	26
1644.83	26
1645.87	28
1646.9	32
1647.94	32
1648.97	28
1650	31
1651.04	30
1652.07	30
1653.11	25
1654.14	30
1655.17	30
1656.21	30
1657.24	32
1658.27	26
1659.31	34
1660.34	31
1661.37	28
1662.4	32
1663.43	35
1664.47	28
1665.5	30
1666.53	28
1667.56	28
1668.59	34
1669.62	33
1670.66	29
1671.69	32
1672.72	25
1673.75	34
1674.78	30
1675.81	30
1676.84	30
1677.87	33
1678.9	30
1679.93	34
1680.96	32
1681.98	28
1683.01	28
1684.04	30
1685.07	30
1686.1	31
1687.13	30
1688.16	24
1689.18	28
1690.21	28
1691.24	30
1692.27	31
1693.3	28
1694.32	26
1695.35	33
1696.38	27
1697.4	26
1698.43	32
1699.46	27
1700.48	28
1701.51	26
1702.54	26
1703.56	28
1704.59	28
1705.61	27
1706.64	28
1707.66	32
1708.69	33
1709.71	34
1710.74	26
1711.76	28
1712.79	33
1713.81	29
1714.83	29
1715.86	29
1716.88	32
1717.91	32
1718.93	33
1719.95	33
1720.98	27
1722	28
1723.02	26
1724.04	31
1725.07	28
1726.09	29
1727.11	32
1728.13	29
1729.15	33
1730.18	20
1731.2	30
1732.22	31
1733.24	29
1734.26	31
1735.28	24
1736.3	36
1737.32	29
1738.34	30
1739.36	30
1740.38	24
1741.4	28
1742.42	30
1743.44	31
1744.46	28
1745.48	29
1746.5	29
1747.52	27
1748.54	33
1749.56	32
1750.58	26
1751.6	28
1752.61	28
1753.63	29
1754.65	28
1755.67	30
1756.68	34
1757.7	26
1758.72	32
1759.74	28
1760.75	30
1761.77	30
1762.79	28
1763.8	31
1764.82	26
1765.83	30
1766.85	32
1767.87	28
1768.88	30
1769.9	27
1770.91	24
1771.93	36
1772.94	29
1773.96	28
1774.97	25
1775.99	30
1777	26
1778.02	34
1779.03	22
1780.04	34
1781.06	24
1782.07	26
1783.09	30
1784.1	30
1785.11	28
1786.13	32
1787.14	35
1788.15	30
1789.16	23
1790.18	26
1791.19	28
1792.2	24
1793.21	28
1794.22	33
1795.23	28
1796.25	29
1797.26	29
1798.27	22
1799.28	25
1800.29	24
1801.3	25
1802.31	33
1803.32	28
1804.33	20
1805.34	28
1806.35	30
1807.36	28
1808.37	31
1809.38	29
1810.39	32
1811.4	32
1812.41	28
1813.42	30
1814.42	30
1815.43	30
1816.44	30
1817.45	30
1818.46	29
1819.47	29
1820.47	30
1821.48	32
1822.49	34
1823.49	32
1824.5	32
1825.51	27
1826.52	26
1827.52	30
1828.53	28
1829.53	25
1830.54	27
1831.55	32
1832.55	30
1833.56	28
1834.56	28
1835.57	32
1836.57	27
1837.58	24
1838.58	28
1839.59	27
1840.59	32
1841.6	30
1842.6	24
1843.61	28
1844.61	26
1845.61	34
1846.62	30
1847.62	30
1848.62	27
1849.63	30
1850.63	30
1851.63	29
1852.64	31
1853.64	26
1854.64	32
1855.64	26
1856.64	36
1857.65	35
1858.65	30
1859.65	29
1860.65	30
1861.65	26
1862.65	32
1863.65	25
1864.66	32
1865.66	24
1866.66	28
1867.66	31
1868.66	27
1869.66	30
1870.66	30
1871.66	26
1872.66	32
1873.66	24
1874.66	28
1875.65	30
1876.65	27
1877.65	31
1878.65	26
1879.65	28
1880.65	27
1881.65	29
1882.64	29
1883.64	30
1884.64	29
1885.64	30
1886.63	27
1887.63	30
1888.63	29
1889.63	27
1890.62	24
1891.62	25
1892.62	29
1893.61	30
1894.61	24
1895.6	31
1896.6	25
1897.6	32
1898.59	33
1899.59	26
1900.58	31
1901.58	31
1902.57	30
1903.57	28
1904.56	32
1905.56	30
1906.55	28
1907.54	32
1908.54	26
1909.53	28
1910.53	32
1911.52	27
1912.51	30
1913.51	27
1914.5	26
1915.49	34
1916.49	26
1917.48	27
1918.47	26
1919.46	30
1920.46	28
1921.45	30
1922.44	30
1923.43	25
1924.42	29
1925.41	30
1926.41	28
1927.4	33
1928.39	30
1929.38	27
1930.37	34
1931.36	26
1932.35	31
1933.34	31
1934.33	28
1935.32	30
1936.31	24
1937.3	25
1938.29	28
1939.28	27
1940.27	32
1941.26	28
1942.24	30
1943.23	28
1944.22	27
1945.21	28
1946.2	29
1947.19	28
1948.17	22
1949.16	28
1950.15	30
1951.14	30
1952.12	28
1953.11	31
1954.1	31
1955.09	30
1956.07	26
1957.06	29
1958.05	32
1959.03	30
1960.02	30
1961	26
1961.99	29
1962.98	31
1963.96	30
1964.95	26
1965.93	29
1966.92	28
1967.9	24
1968.89	20
1969.87	31
1970.85	34
1971.84	30
1972.82	24
1973.81	33
1974.79	28
1975.78	28
1976.76	26
1977.74	28
1978.73	22
1979.71	25
1980.69	24
1981.67	24
1982.66	32
1983.64	30
1984.62	31
1985.6	28
1986.59	29
1987.57	29
1988.55	29
1989.53	20
1990.51	27
1991.49	28
1992.47	30
1993.45	26
1994.44	29
1995.42	28
1996.4	22
1997.38	28
1998.36	27
1999.34	28
2000.32	29
2001.3	26
2002.28	29
2003.26	32
2004.24	33
2005.22	27
2006.19	27
2007.17	26
2008.15	31
2009.13	30
2010.11	31
2011.09	24
2012.06	28
2013.04	26
2014.02	27
2015	31
2015.98	30
2016.95	30
2017.93	27
2018.91	28
2019.88	26
2020.86	27
2021.84	31
2022.81	28
2023.79	28
2024.77	24
2025.74	33
2026.72	28
2027.69	28
2028.67	28
2029.65	30
2030.62	30
2031.6	28
2032.57	28
2033.55	30
2034.52	24
2035.5	24
2036.47	28
2037.44	29
2038.42	32
2039.39	30
2040.36	32
2041.34	29
2042.31	29
2043.29	27
2044.26	30
2045.23	24
2046.2	26
2047.18	23
2048.15	32
2049.12	22
2050.09	30
2051.07	20
2052.04	30
2053.01	27
2053.98	31
2054.95	26
2055.93	32
2056.9	27
2057.87	28
2058.84	23
2059.81	28
2060.78	30
2061.75	26
2062.72	27
2063.69	30
2064.66	30
2065.63	27
2066.6	25
2067.57	26
2068.54	24
2069.51	26
2070.48	28
2071.45	26
2072.42	28
2073.38	26
2074.35	27
2075.32	30
2076.29	30
2077.26	22
2078.23	28
2079.19	32
2080.16	25
2081.13	26
2082.1	29
2083.06	26
2084.03	30
2085	26
2085.96	28
2086.93	24
2087.9	21
2088.86	27
2089.83	29
2090.8	29
2091.76	24
2092.73	26
2093.69	28
2094.66	26
2095.62	25
2096.59	23
2097.55	24
2098.52	22
2099.48	24
2100.45	26
2101.41	26
2102.38	23
2103.34	26
2104.31	26
2105.27	29
2106.23	26
2107.2	27
2108.16	28
2109.12	27
2110.09	26
2111.05	28
2112.01	27
2112.98	29
2113.94	30
2114.9	30
2115.86	24
2116.82	26
2117.79	32
2118.75	26
2119.71	30
2120.67	31
2121.63	26
2122.59	28
2123.55	22
2124.52	27
2125.48	27
2126.44	30
2127.4	27
2128.36	28
2129.32	28
2130.28	28
2131.24	27
2132.2	28
2133.16	29
2134.12	25
2135.08	33
2136.04	20
2136.99	24
2137.95	31
2138.91	25
2139.87	26
2140.83	25
2141.79	26
2142.75	26
2143.7	26
2144.66	22
2145.62	24.9764
2146.58	22.008
2147.53	28.9838
2148.49	23.2864
2149.45	27.8269
2150.41	27.8421
2151.36	28.7962
2152.32	20.225
2153.27	29.4907
2154.23	29.2646
2155.19	24
2156.14	25.7932
2157.1	29.7639
2158.06	27.3726
2159.01	30.8701
2159.97	26
2160.92	27.6814
2161.88	21.3671
2162.83	27.4591
2163.79	26.3824
2164.74	28
2165.7	28.2088
2166.65	26.3539
2167.61	27.3965
2168.56	25.0392
2169.51	26.4778
2170.47	25.4893
2171.42	25.9783
2172.38	28.5356
2173.33	25.8761
2174.28	27.9727
2175.24	26.9814
2176.19	23.6376
2177.14	24.5945
2178.09	27.2584
2179.05	26.6189
2180	25.2242
2180.95	25.2647
2181.9	24.9038
2182.86	28.6824
2183.81	26.5372
2184.76	25.9104
2185.71	24.8333
2186.66	25.25
2187.61	28.8913
2188.57	24.2797
2189.52	24.5179
2190.47	26.6029
2191.42	25.3564
2192.37	26.0148
2193.32	28.1743
2194.27	24.1637
2195.22	24.9706
2196.17	27.599
2197.12	24.5791
2198.07	24.9491
2199.02	20.6214
2199.97	21.7825
2200.92	26.826
2201.87	25.1667
2202.82	23.7148
2203.76	26.2804
2204.71	23.881
2205.66	23.4568
2206.61	25.0242
2207.56	25.2074
2208.51	25.348
2209.45	23.4849
2210.4	26.5233
2211.35	28.2335
2212.3	26.7165
2213.24	28.1435
2214.19	25.5374
2215.14	23.515
2216.09	25.7223
2217.03	27.0487
2217.98	27.0325
2218.93	25.9692
2219.87	24.846
2220.82	26.0663
2221.77	26.6327
2222.71	25.8138
2223.66	26.5762
2224.6	21.9292
2225.55	22.3873
2226.49	25.6765
2227.44	25.1381
2228.38	25.6923
2229.33	24.2281
2230.27	24.2495
2231.22	23.6435
2232.16	24.6751
2233.11	27.5189
2234.05	29.1529
2235	27.9955
2235.94	28.7172
2236.88	27.5992
2237.83	24.7647
2238.77	24.6773
2239.71	27.8255
2240.66	28.1837
2241.6	25.8322
2242	25
2242.95	26
2243.9	30
2244.84	24
2245.79	27
2246.74	29
2247.69	23
2248.63	26
2249.58	27
2250.53	26
2251.47	31
2252.42	22
2253.37	28
2254.31	25
2255.26	25
2256.2	26
2257.15	26
2258.1	24
2259.04	31
2259.99	26
2260.93	24
2261.88	28
2262.82	27
2263.77	25
2264.71	26
2265.65	27
2266.6	24
2267.54	28
2268.49	23
2269.43	26
2270.38	28
2271.32	24
2272.26	27
2273.21	24
2274.15	25
2275.09	23
2276.04	29
2276.98	28
2277.92	28
2278.86	23
2279.81	26
2280.75	24
2281.69	16
2282.63	22
2283.57	26
2284.52	25
2285.46	28
2286.4	28
2287.34	24
2288.28	30
2289.22	24
2290.16	27
2291.1	24
2292.04	30
2292.98	30
2293.93	27
2294.86	26
2295.8	24
2296.74	24
2297.69	24
2298.62	21
2299.56	20
2300.5	24
2301.44	26
2302.38	18
2303.32	25
2304.26	27
2305.2	25
2306.14	22
2307.07	28
2308.01	22
2308.95	22
2309.89	26
2310.83	26
2311.76	29
2312.7	28
2313.64	24
2314.58	26
2315.51	22
2316.45	20
2317.39	28
2318.32	24
2319.26	26
2320.2	25
2321.13	22
2322.07	26
2323	26
2323.94	18
2324.88	24
2325.81	28
2326.75	26
2327.68	26
2328.62	26
2329.55	27
2330.49	30
2331.42	27
2332.36	28
2333.29	22
2334.22	25
2335.16	24
2336.09	26
2337.03	30
2337.96	26
2338.89	27
2339.83	26
2340.76	20
2341.69	28
2342.63	29
2343.56	30
2344.49	25
2345.43	25
2346.36	24
2347.29	28
2348.22	24
2349.15	25
2350.09	31
2351.02	27
2351.95	25
2352.88	26
2353.81	26
2354.74	23
2355.67	23
2356.61	28
2357.54	20
2358.47	25
2359.4	32
2360.33	29
2361.26	27
2362.19	27
2363.12	26
2364.05	28
2364.98	26
2365.91	28
2366.84	26
2367.77	32
2368.7	24
2369.62	24
2370.55	27
2371.48	22
2372.41	29
2373.34	26
2374.27	30
2375.2	27
2376.12	22
2377.05	22
2377.98	24
2378.91	22
2379.83	22
2380.76	22
2381.69	22
2382.62	24
2383.54	24
2384.47	22
2385.4	26
2386.32	28
2387.25	28
2388.18	29
2389.1	29
2390.03	29
2390.95	22
2391.88	26
2392.81	29
2393.73	30
2394.66	28
2395.58	28
2396.51	30
2397.43	30
2398.36	26
2399.28	26
2400.2	29
2401.13	29
2402.05	29
2402.98	24
2403.9	24
2404.83	32
2405.75	26
2406.67	25
2407.6	24
2408.52	30
2409.44	26
2410.37	25
2411.29	30
2412.21	26
2413.13	24
2414.06	26
2414.98	31
2415.9	33
2416.82	27
2417.74	25
2418.67	29
2419.59	26
2420.51	24
2421.43	28
2422.35	20
2423.27	27
2424.19	25
2425.11	26
2426.03	24
2426.96	27
2427.88	25
2428.8	26
2429.72	26
2430.64	26
2431.56	29
2432.48	26
2433.39	27
2434.31	26
2435.23	26
2436.15	28
2437.07	26
2437.99	27
2438.91	26
2439.83	28
2440.75	30
2441.67	32
2442.58	27
2443.5	31
2444.42	26
2445.34	28
2446.26	28
2447.17	29
2448.09	24
2449.01	28
2449.92	26
2450.84	31
2451.76	25
2452.68	31
2453.59	20
2454.51	24
2455.42	28
2456.34	31
2457.26	26
2458.17	29
2459.09	28
2460	26
2460.92	20
2461.83	22
2462.75	27
2463.66	29
2464.58	30
2465.49	30
2466.41	33
2467.32	26
2468.24	29
2469.15	28
2470.07	27
2470.98	27
2471.89	26
2472.81	27
2473.72	26
2474.64	25
2475.55	30
2476.46	25
2477.37	28
2478.29	28
2479.2	26
2480.11	26
2481.03	26
2481.94	26
2482.85	31
2483.76	32
2484.67	29
2485.59	24
2486.5	29
2487.41	26
2488.32	25
2489.23	29
2490.14	28
2491.05	22
2491.97	25
2492.88	30
2493.79	24
2494.7	27
2495.61	28
2496.52	27
2497.43	26
2498.34	26
2499.25	27
2500.16	25
2501.07	24
2501.98	31
2502.89	22
2503.79	31
2504.7	27
2505.61	24
2506.52	30
2507.43	28
2508.34	28
2509.25	24
2510.16	28
2511.06	23
2511.97	30
2512.88	25
2513.79	23
2514.69	27
2515.6	26
2516.51	22
2517.42	28
2518.32	30
2519.23	29
2520.14	26
2521.04	29
2521.95	25
2522.86	24
2523.76	26
2524.67	26
2525.57	20
2526.48	20
2527.39	25
2528.29	26
2529.2	24
2530.1	27
2531.01	22
2531.91	25
2532.82	29
2533.72	29
2534.63	25
2535.53	34
2536.44	26
2537.34	24
2538.24	28
2539.15	28
2540.05	26
2540.96	32
2541.86	24
2542.76	24
2543.67	32
2544.57	28
2545.47	27
2546.37	27
2547.28	26
2548.18	25
2549.08	27
2549.99	24
2550.89	24
2551.79	31
2552.69	20
2553.59	28
2554.49	26
2555.4	26
2556.3	26
2557.2	26
2558.1	28
2559	28
2559.9	26
2560.8	32
2561.7	22
2562.6	30
2563.5	28
2564.4	26
2565.3	26
2566.2	27
2567.1	22
2568	26
2568.9	26
2569.8	31
2570.7	22
2571.6	28
2572.5	30
2573.4	30
2574.3	27
2575.2	28
2576.1	26
2576.99	26
2577.89	28
2578.79	24
2579.69	27
2580.59	28
2581.48	28
2582.38	30
2583.28	27
2584.18	29
2585.07	22
2585.97	26
2586.87	29
2587.76	26
2588.66	30
2589.56	26
2590.45	28
2591.35	29
2592.25	22
2593.14	26
2594.04	27
2594.93	28
2595.83	22
2596.73	28
2597.62	30
2598.52	32
2599.41	29
2600.31	28
2601.2	22
2602.1	26
2602.99	24
2603.88	22
2604.78	32
2605.67	26
2606.57	35
2607.46	26
2608.35	30
2609.25	32
2610.14	26
2611.03	30
2611.93	34
2612.82	26
2613.71	26
2614.61	26
2615.5	27
2616.39	25
2617.29	24
2618.18	28
2619.07	31
2619.96	31
2620.85	28
2621.75	28
2622.64	28
2623.53	27
2624.42	23
2625.31	26
2626.2	30
2627.09	28
2627.98	27
2628.88	28
2629.77	24
2630.66	28
2631.55	24
2632.44	24
2633.33	28
2634.22	31
2635.11	27
2636	28
2636.89	26
2637.78	27
2638.66	31
2639.55	30
2640.44	30
2641.33	28
2642.22	29
2643.11	26
2644	26
2644.89	26
2645.78	31
2646.66	28
2647.55	25
2648.44	18
2649.33	29
2650.21	25
2651.1	20
2651.99	24
2652.88	28
2653.76	24
2654.65	26
2655.54	24
2656.42	30
2657.31	28
2658.2	24
2659.08	32
2659.97	26
2660.86	27
2661.74	29
2662.63	26
2663.51	26
2664.4	29
2665.29	24
2666.17	28
2667.06	26
2667.94	25
2668.83	26
2669.71	27
2670.6	26
2671.48	27
2672.36	29
2673.25	24
2674.13	24
2675.02	29
2675.9	24
2676.78	26
2677.67	20
2678.55	26
2679.43	24
2680.32	28
2681.2	29
2682.08	25
2682.97	30
2683.85	30
2684.73	27
2685.61	30
2686.5	27
2687.38	24
2688.26	25
2689.14	26
2690.03	27
2690.91	29
2691.79	28
2692.67	35
2693.55	28
2694.43	28
2695.31	26
2696.19	30
2697.08	29
2697.96	28
2698.84	25
2699.72	32
2700.6	27
2701.48	24
2702.36	27
2703.24	25
2704.12	29
2705	26
2705.88	29
2706.76	22
2707.64	28
2708.51	24
2709.39	29
2710.27	22
2711.15	25
2712.03	29
2712.91	23
2713.79	26
2714.67	28
2715.54	25
2716.42	29
2717.3	26
2718.18	25
2719.05	26
2719.93	30
2720.81	24
2721.69	32
2722.56	26
2723.44	24
2724.32	27
2725.19	26
2726.07	30
2726.95	27
2727.82	28
2728.7	29
2729.58	24
2730.45	27
2731.33	26
2732.2	22
2733.08	25
2733.95	22
2734.83	27
2735.7	27
2736.58	28
2737.45	26
2738.33	28
2739.2	28
2740.08	30
2740.95	26
2741.83	23
2742.7	27
2743.58	24
2744.45	28
2745.32	26
2746.2	24
2747.07	24
2747.94	31
2748.82	29
2749.69	25
2750.56	28
2751.44	22
2752.31	30
2753.18	28
2754.05	30
2754.93	24
2755.8	28
2756.67	28
2757.54	22
2758.42	30
2759.29	32
2760.16	27
2761.03	27
2761.9	24
2762.77	33
2763.64	24
2764.51	27
2765.38	27
2766.26	25
2767.13	24
2768	33
2768.87	29
2769.74	28
2770.61	26
2771.48	25
2772.35	22
2773.22	26
2774.09	30
2774.96	26
2775.83	27
2776.7	31
2777.56	30
2778.43	28
2779.3	36
2780.17	32
2781.04	31
2781.91	30
2782.78	30
2783.64	27
2784.51	28
2785.38	32
2786.25	30
2787.12	24
2787.98	29
2788.85	28
2789.72	30
2790.59	30
2791.45	29
2792.32	26
2793.19	28
2794.05	26
2794.92	26
2795.79	33
2796.65	32
2797.52	30
2798.38	30
2799.25	28
2800.12	26
2800.98	30
2801.85	28
2802.71	29
2803.58	28.5
2804.44	28
2805.31	25
2806.17	29
2807.04	26
2807.9	29
2808.77	28
2809.63	32
2810.5	29
2811.36	28
2812.22	31
2813.09	27
2813.95	26
2814.82	28
2815.68	26
2816.54	29
2817.41	30
2818.27	30
2819.13	24
2820	26
2820.86	27
2821.72	31
2822.58	28
2823.45	24
2824.31	28
2825.17	31
2826.03	28
2826.9	29
2827.76	27
2828.62	26
2829.48	30
2830.34	33
2831.2	32
2832.06	28
2832.92	26
2833.79	28
2834.65	30
2835.51	30
2836.37	31
2837.23	28
2838.09	26
2838.95	30
2839.81	30
2840.67	28
2841.53	27
2842.39	28
2843.25	26
2844.11	30
2844.97	26
2845.83	34
2846.68	27
2847.54	24
2848.4	26
2849.26	24
2850.12	24
2850.98	26
2851.84	26
2852.69	30
2853.55	26
2854.41	27
2855.27	24
2856.13	27
2856.98	31
2857.84	33
2858.7	22
2859.56	29
2860.41	24
2861.27	26
2862.13	30
2862.98	25
2863.84	28
2864.7	27
2865.55	23
2866.41	30
2867.27	30
2868.12	26
2868.98	24
2869.83	26
2870.69	26
2871.54	30
2872.4	28
2873.25	30
2874.11	30
2874.96	30
2875.82	28
2876.68	30
2877.53	26
2878.38	28
2879.24	33
2880.09	35
2880.95	37
2881.8	26
2882.65	34
2883.51	34
2884.36	29
2885.22	24
2886.07	36
2886.92	37
2887.77	39
2888.63	28
2889.48	37
2890.33	41
2891.19	32
2892.04	34
2892.89	41
2893.74	39
2894.6	40
2895.45	42
2896.3	46
2897.15	42
2898	44
2898.85	42
2899.71	45
2900.56	56
2901.41	52
2902.26	58
2903.11	58
2903.96	69
2904.81	59
2905.66	57
2906.51	58
2907.36	61
2908.21	63
2909.06	52
2909.91	50
2910.76	51
2911.61	59
2912.46	53
2913.31	50
2914.16	50
2915.01	46
2915.86	47
2916.71	46
2917.56	38
2918.41	36
2919.26	38
2920.1	34
2920.95	36
2921.8	38
2922.65	34
2923.5	30
2924.34	36
2925.19	35
2926.04	30
2926.89	30
2927.74	32
2928.58	30
2929.43	30
2930.28	33
2931.12	30
2931.97	27
2932.82	29
2933.66	26
2934.51	30
2935.36	31
2936.2	29
2937.05	27
2937.89	28
2938.74	29
2939.59	30
2940.43	31
2941.28	24
2942.12	31
2942.97	25
2943.81	30
2944.66	33
2945.5	29
2946.35	29
2947.19	26
2948.04	31
2948.88	33
2949.72	27
2950.57	26
2951.41	32
2952.26	32
2953.1	26
2953.94	32
2954.79	27
2955.63	31
2956.47	32
2957.32	37
2958.16	34
2959	32
2959.85	40
2960.69	40
2961.53	38
2962.37	38
2963.22	43
2964.06	35
2964.9	40
2965.74	36
2966.58	46
2967.42	36
2968.27	40
2969.11	39
2969.95	33
2970.79	38
2971.63	39
2972.47	36
2973.31	37
2974.15	35
2974.99	33
2975.83	33
2976.68	28
2977.52	33
2978.36	32
2979.2	28
2980.04	33
2980.88	31
2981.71	28
2982.55	32
2983.39	29
2984.23	28
2985.07	28
2985.91	33
2986.75	27
2987.59	29
2988.43	20
2989.27	28
2990.1	28
2990.94	32
2991.78	31
2992.62	26
2993.46	22
2994.3	29
2995.13	27
2995.97	24
2996.81	24
2997.64	33
2998.48	32
2999.32	25
