#Acq. time (s)=	3
#Accumulations=	3
#Range (cm-¹)=	100...3000
#Windows=	3
#Autofocus=	Off
#AutoExposure=	Off
#Spike filter=	Multiple accum.
#Delay time (s)=	0
#Binning=	1
#Readout mode=	Signal
#DeNoise=	Off
#ICS correction=	Off
#Dark correction=	Off
#Inst. Process=	Off
#Instrument=	LabRAM HR Evol
#Detector=	Syncerity OE
#Objective=	x100_VIS_LWD
#Grating=	600 (500nm)
#ND Filter=	25%
#Laser=	633nm_Edge
#Hole=	100.021
#Range=	Visible
#Project=	Bolus
#Sample=	A4
#Site=	stripside
#Title=	m06
#Remark=	
#Date=	03.11.2025 17:23
#Acquired=	03.11.2025 17:23:31
100.969	24
102.252	34
103.535	36
104.818	30
106.101	28
107.384	32
108.666	33
109.948	34
111.232	26
112.514	33
113.795	34
115.077	28
116.358	33
117.639	36
118.919	34
120.2	31
121.48	33
122.76	36
124.04	39
125.32	32
126.599	32
127.879	33
129.158	32
130.436	34
131.715	38
132.992	31
134.27	28
135.548	32
136.826	34
138.104	38
139.381	33
140.658	38
141.935	38
143.212	36
144.489	32
145.763	38
147.04	41
148.315	36
149.591	38
150.867	39
152.142	42
153.416	38
154.691	36
155.965	42
157.24	37
158.514	36
159.786	37
161.06	37
162.334	36
163.607	34
164.881	38
166.152	36
167.425	38
168.698	35
169.969	34
171.241	38
172.513	39
173.785	34
175.055	41
176.326	40
177.597	38
178.867	39
180.137	37
181.408	38
182.677	38
183.947	40
185.217	34
186.485	45
187.755	40
189.022	30
190.291	41
191.56	42
192.828	40
194.096	42
195.363	36
196.631	32
197.899	36
199.165	40
200.432	34
201.698	34
202.965	37
204.23	34
205.497	36
206.762	35
208.028	47
209.293	32
210.559	32
211.823	38
213.088	30
214.352	36
215.617	34
216.88	37
218.145	34
219.408	35
220.672	36
221.934	30
223.196	37
224.46	28
225.722	28
226.985	36
228.246	30
229.508	34
230.77	26
232.031	34
233.292	34
234.554	33
235.814	30
237.074	30
238.335	34
239.595	30
240.854	32
242.115	32
243.374	28
244.633	32
245.893	29
247.151	34
248.409	34
249.667	32
250.927	30
252.184	28
253.442	32
254.699	30
255.957	31
257.214	33
258.47	29
259.727	30
260.983	28
262.24	29
263.496	34
264.752	30
266.007	32
267.262	31
268.517	34
269.773	31
271.028	37
272.282	24
273.536	33
274.79	26
276.044	32
277.297	33
278.551	30
279.804	32
281.057	32
282.31	31
283.564	29
284.816	28
286.068	32
287.32	30
288.572	34
289.823	24
291.074	28
292.325	28
293.576	26
294.827	25
296.077	32
297.328	34
298.578	30
299.828	25
301.077	29
302.325	28
303.575	32
304.824	26
306.073	34
307.321	31
308.57	26
309.818	30
311.066	30
312.314	33
313.562	30
314.808	28
316.055	28
317.302	30
318.549	30
319.796	30
321.042	31
322.288	28
323.533	32
324.779	32
326.024	35
327.27	33
328.515	34
329.759	28
331.004	31
332.248	30
333.493	33
334.736	26
335.98	30
337.223	29
338.466	32
339.709	32
340.952	30
342.195	36
343.437	26
344.68	32
345.922	28
347.163	33
348.405	28
349.647	30
350.887	27
352.128	32
353.37	31
354.609	37
355.85	28
357.089	30
358.33	30
359.57	32
360.809	29
362.049	32
363.287	30
364.526	28
365.764	32
367.003	34
368.241	30
369.479	32
370.718	35
371.955	28
373.193	35
374.429	28
375.667	27
376.903	33
378.139	29
379.376	29
380.611	33
381.848	34
383.083	29
384.319	36
385.554	36
386.79	31
388.024	32
389.258	32
390.493	30
391.727	33
392.962	26
394.195	24
395.428	31
396.663	25
397.895	26
399.128	30
400.361	30
401.593	31
402.825	28
404.058	35
405.29	34
406.521	32
407.752	30
408.985	33
410.215	32
411.446	28
412.678	32
413.908	26
415.138	28
416.367	32
417.597	30
418.828	30
420.057	33
421.286	31
422.514	30
423.743	29
424.973	31
426.201	29
427.429	31
428.657	24
429.884	30
431.112	33
432.34	26
433.567	30
434.794	31
436.02	32
437.247	32
438.473	30
439.699	32
440.925	30
442.15	28
443.376	33
444.601	32
445.826	29
447.051	28
448.275	35
449.5	33
450.724	34
451.948	30
453.172	37
454.396	33
455.619	26
456.842	33
458.065	30
459.288	33
460.511	35
461.733	29
462.956	33
464.178	28
465.4	31
466.621	32
467.843	28
469.064	31
470.285	31
471.505	36
472.726	36
473.946	36
475.166	28
476.387	36
477.606	42
478.825	39
480.044	40
481.264	43
482.483	45
483.702	49
484.921	43
486.138	48
487.356	49
488.574	50
489.792	61
491.009	54
492.226	45
493.444	50
494.661	49
495.877	50
497.094	43
498.31	48
499.525	46
500.741	46
501.958	52
503.172	40
504.388	38
505.603	37
506.817	36
508.032	36
509.247	38
510.46	36
511.675	39
512.888	36
514.102	33
515.316	31
516.528	33
517.742	35
518.954	30
520.167	34
521.378	35
522.591	33
523.802	35
525.015	37
526.226	30
527.438	27
528.648	33
529.86	34
531.07	29
532.281	32
533.491	30
534.702	34
535.911	33
537.121	32
538.33	31
539.54	31
540.749	32
541.957	28
543.167	38
544.375	32
545.584	28
546.791	30
547.999	32
549.207	31
550.414	30
551.621	30
552.829	32
554.035	31
555.241	31
556.449	27
557.655	32
558.86	32
560.066	28
561.272	34
562.477	34
563.682	31
564.888	26
566.093	26
567.297	27
568.501	31
569.705	34
570.91	28
572.114	32
573.317	31
574.52	35
575.723	24
576.927	30
578.13	30
579.332	30
580.535	32
581.737	34
582.938	28
584.14	36
585.343	26
586.544	20
587.745	31
588.946	38
590.147	30
591.347	29
592.548	30
593.748	28
594.948	30
596.147	32
597.347	26
598.546	26
599.745	30
600.944	31
602.143	32
603.342	32
604.54	26
605.738	30
606.937	28
608.134	30
609.332	35
610.529	30
611.727	30
612.924	35
614.121	31
615.317	34
616.513	34
617.709	30
618.905	28
620.101	28
621.297	29
622.492	24
623.688	31
624.883	32
626.077	34
627.271	32
628.466	28
629.66	30
630.855	25
632.047	34
633.241	30
634.435	29
635.629	28
636.82	31
638.014	33
639.207	31
640.399	34
641.59	24
642.783	26
643.975	28
645.166	32
646.357	29
647.549	33
648.741	31
649.93	30
651.122	30
652.311	34
653.502	30
654.692	32
655.881	31
657.071	31
658.261	27
659.45	27
660.639	35
661.827	34
663.016	31
664.204	31
665.393	29
666.581	28
667.769	31
668.957	30
670.143	36
671.331	30
672.518	30
673.705	31
674.891	32
676.078	35
677.264	34
678.451	30
679.636	38
680.821	36
682.007	32
683.192	36
684.378	30
685.562	37
686.747	39
687.931	38
689.115	34
690.3	36
691.483	34
692.666	34
693.851	34
695.034	33
696.216	35
697.4	32
698.582	36
699.764	37
700.948	28
702.129	38
703.311	40
704.493	38
705.674	40
706.855	40
708.036	44
709.218	50
710.399	46
711.579	42
712.759	44
713.939	46
715.12	39
716.299	37
717.478	34
718.657	33
719.836	32
721.015	33
722.195	33
723.373	32
724.552	36
725.729	33
726.907	36
728.085	33
729.262	32
730.44	28
731.617	33
732.795	31
733.972	33
735.148	22
736.324	32
737.501	34
738.677	29
739.852	24
741.028	32
742.203	26
743.379	34
744.554	32
745.729	32
746.903	32
748.078	28
749.252	30
750.426	31
751.599	33
752.772	32
753.946	30
755.119	26
756.293	34
757.466	30
758.639	29
759.811	30
760.984	30
762.155	30
763.327	31
764.499	36
765.67	30
766.842	32
768.013	28
769.183	34
770.354	33
771.525	32
772.696	33
773.865	29
775.035	30
776.205	30
777.375	33
778.544	30
779.713	31
780.882	28
782.052	35
783.219	30
784.388	33
785.557	30
786.724	31
787.892	35
789.06	26
790.227	31
791.395	35
792.562	30
793.728	27
794.895	29
796.061	34
797.228	28
798.395	36
799.56	32
800.726	30
801.891	36
803.057	31
804.221	31
805.387	35
806.551	34
807.716	28
808.879	34
810.044	31
811.208	31
812.372	31
813.535	26
814.699	31
815.862	32
817.025	29
818.188	28
819.351	30
820.513	28
821.675	32
822.837	28
823.999	33
825.161	31
826.322	29
827.483	31
828.645	31
829.805	26
830.966	28
832.127	33
833.287	29
834.447	26
835.607	35
836.767	26
837.926	29
839.085	31
840.245	27
841.404	33
842.562	27
843.72	34
844.88	30
846.038	22
847.195	30
848.353	34
849.512	26
850.669	33
851.826	33
852.983	31
854.139	29
855.296	30
856.453	26
857.609	32
858.765	30
859.921	29
861.077	30
862.232	32
863.387	35
864.542	28
865.697	36
866.852	29
868.008	24
869.162	30
870.316	29
871.47	29
872.624	26
873.778	32
874.931	29
876.084	30
877.237	32
878.39	30
879.543	33
880.695	30
881.846	35
882.999	30
884.151	28
885.302	30
886.454	31
887.606	32
888.757	27
889.908	30
891.059	30
892.21	32
893.359	28
894.509	28
895.659	29
896.81	26
897.959	26
899.109	29
900.257	28
901.407	31
902.556	28
903.705	31
904.854	32
906.001	26
907.149	28
908.298	30
909.446	28
910.592	28
911.74	27
912.888	24
914.034	27
915.181	30
916.328	27
917.473	28
918.62	26
919.766	28
920.911	33
922.058	29
923.204	33
924.348	30
925.494	28
926.638	26
927.783	28
928.928	36
930.072	28
931.216	30
932.36	24
933.504	25
934.647	30
935.791	28
936.933	23
938.077	28
939.219	29
940.363	28
941.504	29
942.647	31
943.789	30
944.932	30
946.073	32
947.215	33
948.356	29
949.498	32
950.638	27
951.778	28
952.92	29
954.06	22
955.199	32
956.34	29
957.479	28
958.62	29
959.759	32
960.898	28
962.038	28
963.176	30
964.315	26
965.453	31
966.592	24
967.73	31
968.867	32
970.006	29
971.144	29
972.281	28
973.418	26
974.554	28
975.692	32
976.829	30
977.965	26
979.101	30
980.237	35
981.374	26
982.509	33
983.645	31
984.78	29
985.915	33
987.05	28
988.184	24
989.319	30
990.453	29
991.589	32
992.722	26
993.856	30
994.99	30
996.123	28
997.257	30
998.39	29
999.523	30
1000.66	29
1001.79	30
1002.92	31
1004.05	31
1005.18	27
1006.32	32
1007.45	26
1008.58	28
1009.71	26
1010.84	26
1011.97	25
1013.1	24
1014.23	31
1015.36	26
1016.49	26
1017.62	26
1018.75	30
1019.88	24
1021.01	26
1022.14	28
1023.27	35
1024.4	30
1025.53	28
1026.66	26
1027.79	29
1028.91	28
1030.04	28
1031.17	24
1032.3	29
1033.42	26
1034.55	29
1035.68	27
1036.81	29
1037.93	26
1039.06	29
1040.18	30
1041.31	28
1042.44	28
1043.56	30
1044.69	30
1045.81	33
1046.94	29
1048.06	29
1049.19	25
1050.31	30
1051.44	29
1052.56	32
1053.69	29
1054.81	28
1055.93	28
1057.06	34
1058.18	30
1059.3	28
1060.43	20
1061.55	28
1062.67	26
1063.79	30
1064.92	30
1066.04	26
1067.16	28
1068.28	30
1069.4	20
1070.52	25
1071.65	26
1072.77	28
1073.89	31
1075.01	32
1076.13	28
1077.25	31
1078.37	26
1079.49	24
1080.61	26
1081.73	30
1082.85	33
1083.97	26
1085.09	24
1086.2	29
1087.32	31
1088.44	26
1089.56	24
1090.68	26
1091.8	30
1092.91	28
1094.03	31
1095.15	32
1096.26	29
1097.38	29
1098.5	28
1099.61	27
1100.73	29
1101.85	30
1102.96	28
1104.08	24
1105.19	31
1106.31	24
1107.43	30
1108.54	24
1109.66	28
1110.77	30
1111.88	31
1113	29
1114.11	29
1115.23	30
1116.34	28
1117.46	26
1118.57	26
1119.68	30
1120.8	26
1121.91	30
1123.02	31
1124.13	26
1125.25	25
1126.36	32
1127.47	22
1128.58	28
1129.69	30
1130.8	30
1131.92	30
1133.03	24
1134.14	29
1135.25	27
1136.36	24
1137.47	28
1138.58	26
1139.69	28
1140.8	27
1141.91	27
1143.02	28
1144.13	26
1145.24	31
1146.35	30
1147.46	28
1148.56	31
1149.67	26
1150.78	29
1151.89	30
1153	26
1154.1	26
1155.21	31
1156.32	26
1157.43	32
1158.53	27
1159.64	30
1160.75	28
1161.85	27
1162.96	30
1164.07	28
1165.17	30
1166.28	26
1167.38	24
1168.49	30
1169.59	28
1170.7	32
1171.8	25
1172.91	26
1174.01	30
1175.12	24
1176.22	32
1177.32	27
1178.43	28
1179.53	28
1180.64	28
1181.74	27
1182.84	27
1183.94	24
1185.05	26
1186.15	26
1187.25	20
1188.35	28
1189.46	30
1190.56	25
1191.66	28
1192.76	24
1193.86	30
1194.96	28
1196.06	29.9902
1197.16	27.9668
1198.26	29.9215
1199.37	28.0915
1200.47	23.3485
1201.57	28.9363
1202.67	26.9363
1203.77	26.8477
1204.86	23.3047
1205.96	33.4852
1207.06	22.7251
1208.16	25.3888
1209.26	26.1853
1210.36	25.5986
1211.46	24.4946
1212.56	24
1213.65	20.8863
1214.75	24.431
1215.85	29.4501
1216.95	30.6098
1218.04	26.8992
1219.14	31.394
1220.24	27.5747
1221.33	28.2901
1222.43	25.4804
1223.53	30.3379
1224.62	28.7971
1225.72	27.5796
1226.82	28.5629
1227.91	26.5411
1229.01	23.9119
1230.1	22.7144
1231.2	24.1589
1232.29	27.73
1233.39	27.8478
1234.48	26.8631
1235.58	28.4999
1236.67	26.9493
1237.77	27.5655
1238.86	27.0772
1239.95	25.9032
1241.05	25.9656
1242.14	30.0261
1243.23	25.9534
1244.33	23.7523
1245.42	25.365
1246.51	27.8201
1247.61	26.6555
1248.7	27.6855
1249.79	24.9706
1250.88	28.676
1251.97	27.3895
1253.07	27.9269
1254.16	29.098
1255.25	29.4374
1256.34	25.3597
1257.43	26.7825
1258.52	27.9216
1259.61	31.2263
1260.7	27.6664
1261.79	29.3549
1262.88	26.3324
1263.97	27.2255
1265.06	27.1991
1266.15	29.4677
1267.24	28.5076
1268.33	27.8834
1269.42	26.1436
1270.51	27.6339
1271.6	27.7576
1272.68	23.2228
1273.77	24.6536
1274.86	25.7609
1275.95	27.3047
1277.04	26.109
1278.12	28.2319
1279.21	25.75
1280.3	27.571
1281.39	26.2955
1282.47	28.2919
1283.56	29.1569
1284.65	29.1147
1285.73	25.9136
1286.82	24.7291
1287.91	27.8284
1288.99	27.6765
1290.08	27.7182
1291.16	27.5211
1292.25	28.5702
1293.33	27.2577
1294.42	22.6872
1295.5	24.5482
1296.59	26.7595
1297.67	24.7312
1298.76	29.3604
1299.84	26.2009
1300.92	27.4504
1302.01	24.6437
1303.09	28.9112
1304.17	26.8924
1305.26	17.0417
1306.34	27.0725
1307.34	28
1308.43	27
1309.52	26
1310.61	27
1311.7	25
1312.78	28
1313.87	24
1314.96	30
1316.04	26
1317.13	25
1318.22	26
1319.3	27
1320.39	29
1321.48	24
1322.56	26
1323.65	26
1324.73	27
1325.82	28
1326.9	24
1327.99	24
1329.07	28
1330.16	25
1331.24	26
1332.33	25
1333.41	27
1334.5	26
1335.58	24
1336.66	32
1337.75	26
1338.83	24
1339.91	24
1341	32
1342.08	29
1343.16	28
1344.24	26
1345.33	28
1346.41	28
1347.49	24
1348.57	31
1349.65	24
1350.74	29
1351.82	32
1352.9	32
1353.98	24
1355.06	34
1356.14	28
1357.22	27
1358.3	26
1359.38	22
1360.46	29
1361.54	24
1362.62	26
1363.7	29
1364.78	27
1365.86	34
1366.94	26
1368.02	26
1369.09	28
1370.17	31
1371.25	29
1372.33	28
1373.41	32
1374.48	30
1375.56	29
1376.64	26
1377.72	26
1378.79	26
1379.87	29
1380.95	28
1382.02	20
1383.1	26
1384.17	24
1385.25	27
1386.33	28
1387.4	31
1388.48	28
1389.55	28
1390.63	33
1391.7	30
1392.78	28
1393.85	34
1394.93	28
1396	28
1397.07	28
1398.15	29
1399.22	28
1400.3	28
1401.37	31
1402.44	27
1403.52	30
1404.59	30
1405.66	30
1406.73	30
1407.81	24
1408.88	28
1409.95	30
1411.02	32
1412.09	26
1413.17	30
1414.24	30
1415.31	30
1416.38	35
1417.45	32
1418.52	22
1419.59	35
1420.66	28
1421.73	30
1422.8	28
1423.87	25
1424.94	30
1426.01	32
1427.08	30
1428.15	32
1429.22	28
1430.29	27
1431.35	33
1432.42	20
1433.49	30
1434.56	30
1435.63	31
1436.69	29
1437.76	29
1438.83	30
1439.9	26
1440.96	27
1442.03	20
1443.1	28
1444.17	28
1445.23	23
1446.3	26
1447.36	29
1448.43	32
1449.49	26
1450.56	26
1451.63	31
1452.69	33
1453.76	30
1454.82	31
1455.89	26
1456.95	25
1458.01	30
1459.08	31
1460.14	27
1461.21	24
1462.27	27
1463.34	18
1464.4	25
1465.46	28
1466.52	26
1467.59	28
1468.65	28
1469.71	30
1470.77	28
1471.84	28
1472.9	26
1473.96	32
1475.02	28
1476.08	27
1477.15	28
1478.21	30
1479.27	28
1480.33	26
1481.39	34
1482.45	23
1483.51	29
1484.57	27
1485.63	33
1486.69	26
1487.75	32
1488.81	20
1489.87	28
1490.93	28
1491.99	29
1493.05	29
1494.1	24
1495.16	26
1496.22	27
1497.28	24
1498.34	30
1499.4	34
1500.45	30
1501.51	24
1502.57	28
1503.63	30
1504.68	35
1505.74	31
1506.8	32
1507.85	29
1508.91	28
1509.97	22
1511.02	25
1512.08	27
1513.13	27
1514.19	26
1515.24	28
1516.3	29
1517.35	30
1518.41	36
1519.46	22
1520.52	22
1521.57	27
1522.63	28
1523.68	29
1524.73	30
1525.79	22
1526.84	26
1527.9	32
1528.95	26
1530	24
1531.05	25
1532.11	22
1533.16	24
1534.21	26
1535.26	33
1536.32	26
1537.37	30
1538.42	27
1539.47	27
1540.52	27
1541.57	32
1542.63	26
1543.68	28
1544.73	30
1545.78	27
1546.83	28
1547.88	28
1548.93	30
1549.98	26
1551.03	30
1552.08	29
1553.13	32
1554.18	29
1555.23	24
1556.27	26
1557.32	28
1558.37	26
1559.42	28
1560.47	25
1561.52	29
1562.56	24
1563.61	24
1564.66	28
1565.71	26
1566.75	33
1567.8	24
1568.85	29
1569.9	30
1570.94	28
1571.99	27
1573.03	22
1574.08	22
1575.13	28
1576.17	32
1577.22	32
1578.26	30
1579.31	28
1580.35	30
1581.4	26
1582.44	32
1583.49	30
1584.53	25
1585.58	27
1586.62	29
1587.66	29
1588.71	30
1589.75	32
1590.8	30
1591.84	28
1592.88	29
1593.92	29
1594.97	26
1596.01	26
1597.05	30
1598.1	32
1599.14	26
1600.18	26
1601.22	28
1602.26	30
1603.3	26
1604.35	30
1605.39	26
1606.43	26
1607.47	28
1608.51	30
1609.55	32
1610.59	24
1611.63	26
1612.67	30
1613.71	34
1614.75	32
1615.79	29
1616.83	26
1617.87	27
1618.91	33
1619.95	26
1620.99	29
1622.02	30
1623.06	26
1624.1	26
1625.14	30
1626.18	26
1627.21	22
1628.25	30
1629.29	25
1630.33	26
1631.36	28
1632.4	28
1633.44	28
1634.48	28
1635.51	31
1636.55	28
1637.58	24
1638.62	25
1639.66	33
1640.69	25
1641.73	26
1642.76	28
1643.8	29
1644.83	29
1645.87	29
1646.9	30
1647.94	22
1648.97	30
1650	28
1651.04	33
1652.07	26
1653.11	31
1654.14	27
1655.17	31
1656.21	26
1657.24	30
1658.27	31
1659.31	28
1660.34	24
1661.37	33
1662.4	22
1663.43	28
1664.47	32
1665.5	28
1666.53	26
1667.56	29
1668.59	28
1669.62	30
1670.66	26
1671.69	28
1672.72	25
1673.75	34
1674.78	26
1675.81	27
1676.84	24
1677.87	28
1678.9	28
1679.93	26
1680.96	30
1681.98	23
1683.01	24
1684.04	31
1685.07	26
1686.1	28
1687.13	22
1688.16	34
1689.18	24
1690.21	26
1691.24	31
1692.27	29
1693.3	25
1694.32	30
1695.35	24
1696.38	28
1697.4	29
1698.43	28
1699.46	29
1700.48	28
1701.51	29
1702.54	33
1703.56	29
1704.59	28
1705.61	28
1706.64	26
1707.66	28
1708.69	28
1709.71	30
1710.74	22
1711.76	33
1712.79	28
1713.81	24
1714.83	29
1715.86	26
1716.88	24
1717.91	30
1718.93	33
1719.95	31
1720.98	30
1722	26
1723.02	29
1724.04	28
1725.07	26
1726.09	30
1727.11	18
1728.13	29
1729.15	25
1730.18	33
1731.2	30
1732.22	26
1733.24	29
1734.26	29
1735.28	22
1736.3	32
1737.32	28
1738.34	26
1739.36	26
1740.38	28
1741.4	25
1742.42	30
1743.44	28
1744.46	26
1745.48	30
1746.5	30
1747.52	26
1748.54	28
1749.56	26
1750.58	32
1751.6	26
1752.61	26
1753.63	30
1754.65	24
1755.67	26
1756.68	25
1757.7	27
1758.72	27
1759.74	30
1760.75	30
1761.77	26
1762.79	30
1763.8	30
1764.82	26
1765.83	27
1766.85	28
1767.87	28
1768.88	26
1769.9	29
1770.91	24
1771.93	26
1772.94	30
1773.96	29
1774.97	27
1775.99	26
1777	27
1778.02	24
1779.03	30
1780.04	28
1781.06	22
1782.07	24
1783.09	28
1784.1	34
1785.11	26
1786.13	29
1787.14	28
1788.15	30
1789.16	32
1790.18	28
1791.19	30
1792.2	24
1793.21	26
1794.22	28
1795.23	27
1796.25	27
1797.26	32
1798.27	24
1799.28	29
1800.29	32
1801.3	25
1802.31	26
1803.32	28
1804.33	29
1805.34	26
1806.35	22
1807.36	34
1808.37	26
1809.38	30
1810.39	26
1811.4	24
1812.41	30
1813.42	20
1814.42	28
1815.43	31
1816.44	26
1817.45	18
1818.46	27
1819.47	22
1820.47	26
1821.48	36
1822.49	26
1823.49	32
1824.5	24
1825.51	27
1826.52	25
1827.52	32
1828.53	25
1829.53	26
1830.54	28
1831.55	28
1832.55	28
1833.56	32
1834.56	24
1835.57	24
1836.57	25
1837.58	29
1838.58	27
1839.59	27
1840.59	22
1841.6	28
1842.6	22
1843.61	20
1844.61	26
1845.61	28
1846.62	29
1847.62	29
1848.62	30
1849.63	27
1850.63	29
1851.63	28
1852.64	29
1853.64	24
1854.64	26
1855.64	30
1856.64	36
1857.65	31
1858.65	31
1859.65	28
1860.65	28
1861.65	28
1862.65	27
1863.65	30
1864.66	28
1865.66	28
1866.66	24
1867.66	27
1868.66	28
1869.66	28
1870.66	26
1871.66	28
1872.66	29
1873.66	26
1874.66	24
1875.65	28
1876.65	30
1877.65	29
1878.65	27
1879.65	26
1880.65	25
1881.65	28
1882.64	27
1883.64	27
1884.64	28
1885.64	26
1886.63	26
1887.63	24
1888.63	35
1889.63	30
1890.62	29
1891.62	31
1892.62	26
1893.61	22
1894.61	29
1895.6	26
1896.6	25
1897.6	27
1898.59	29
1899.59	26
1900.58	32
1901.58	24
1902.57	22
1903.57	29
1904.56	28
1905.56	26
1906.55	24
1907.54	26
1908.54	32
1909.53	27
1910.53	25
1911.52	21
1912.51	26
1913.51	34
1914.5	32
1915.49	31
1916.49	28
1917.48	30
1918.47	27
1919.46	31
1920.46	29
1921.45	29
1922.44	30
1923.43	27
1924.42	30
1925.41	28
1926.41	24
1927.4	29
1928.39	27
1929.38	21
1930.37	31
1931.36	30
1932.35	26
1933.34	26
1934.33	29
1935.32	24
1936.31	29
1937.3	26
1938.29	24
1939.28	28
1940.27	30
1941.26	27
1942.24	27
1943.23	26
1944.22	30
1945.21	28
1946.2	26
1947.19	29
1948.17	29
1949.16	24
1950.15	28.5
1951.14	30
1952.12	29
1953.11	30
1954.1	27
1955.09	26
1956.07	26
1957.06	22
1958.05	27
1959.03	24
1960.02	32
1961	28
1961.99	33
1962.98	24
1963.96	28
1964.95	27
1965.93	34
1966.92	29
1967.9	28
1968.89	20
1969.87	30
1970.85	27
1971.84	32
1972.82	30
1973.81	24
1974.79	31
1975.78	25
1976.76	26
1977.74	25
1978.73	27
1979.71	26
1980.69	27
1981.67	24
1982.66	32
1983.64	28
1984.62	29
1985.6	26
1986.59	26
1987.57	29
1988.55	28
1989.53	26
1990.51	28
1991.49	27
1992.47	20
1993.45	26
1994.44	28
1995.42	24
1996.4	30
1997.38	31
1998.36	25
1999.34	23
2000.32	27
2001.3	28
2002.28	24
2003.26	27
2004.24	28
2005.22	22
2006.19	18
2007.17	21
2008.15	26
2009.13	28
2010.11	26
2011.09	28
2012.06	26
2013.04	24
2014.02	24
2015	24
2015.98	26
2016.95	26
2017.93	24
2018.91	24
2019.88	26
2020.86	24
2021.84	22
2022.81	20
2023.79	25
2024.77	27
2025.74	24
2026.72	25
2027.69	30
2028.67	24
2029.65	28
2030.62	27
2031.6	25
2032.57	26
2033.55	28
2034.52	28
2035.5	26
2036.47	23
2037.44	26
2038.42	25
2039.39	28
2040.36	21
2041.34	28
2042.31	25
2043.29	29
2044.26	28
2045.23	30
2046.2	24
2047.18	28
2048.15	28
2049.12	27
2050.09	26
2051.07	24
2052.04	25
2053.01	24
2053.98	28
2054.95	26
2055.93	27
2056.9	29
2057.87	24
2058.84	32
2059.81	24
2060.78	22
2061.75	28
2062.72	30
2063.69	24
2064.66	29
2065.63	20
2066.6	25
2067.57	20
2068.54	26
2069.51	24
2070.48	20
2071.45	28
2072.42	28
2073.38	26
2074.35	26
2075.32	20
2076.29	28
2077.26	26
2078.23	26
2079.19	24
2080.16	24
2081.13	30
2082.1	28
2083.06	26
2084.03	26
2085	28
2085.96	28
2086.93	24
2087.9	30
2088.86	24
2089.83	22
2090.8	29
2091.76	25
2092.73	30
2093.69	26
2094.66	28
2095.62	26
2096.59	31
2097.55	25
2098.52	28
2099.48	26
2100.45	30
2101.41	24
2102.38	29
2103.34	27
2104.31	26
2105.27	26
2106.23	23
2107.2	28
2108.16	30
2109.12	26
2110.09	28
2111.05	24
2112.01	26
2112.98	29
2113.94	30
2114.9	26
2115.86	28
2116.82	21
2117.79	26
2118.75	30
2119.71	29
2120.67	29
2121.63	22
2122.59	26
2123.55	24
2124.52	26
2125.48	28
2126.44	29
2127.4	24
2128.36	25
2129.32	30
2130.28	26
2131.24	24
2132.2	25
2133.16	20
2134.12	28
2135.08	28
2136.04	22
2136.99	26
2137.95	28
2138.91	28
2139.87	25
2140.83	28
2141.79	25
2142.75	22
2143.7	32
2144.66	28
2145.62	18.0294
2146.58	28.9318
2147.53	28.9692
2148.49	29.8172
2149.45	27.7081
2150.41	25.0386
2151.36	20.1106
2152.32	31.0061
2153.27	22.3055
2154.23	26.3723
2155.19	24.9857
2156.14	27.3235
2157.1	23.7369
2158.06	19.7638
2159.01	23.2769
2159.97	26.3922
2160.92	23.8507
2161.88	27.9982
2162.83	26.176
2163.79	22
2164.74	26.5963
2165.7	27.1668
2166.65	26.7731
2167.61	28.1754
2168.56	23.9881
2169.51	26.7352
2170.47	24.984
2171.42	26.1829
2172.38	29.6155
2173.33	28.4072
2174.28	27.6892
2175.24	24.0735
2176.19	21.233
2177.14	24.9165
2178.09	26.7227
2179.05	25.6133
2180	25.3879
2180.95	28.6375
2181.9	28.306
2182.86	23.4322
2183.81	23.5882
2184.76	25.1758
2185.71	23.9916
2186.66	25.8162
2187.61	23.7459
2188.57	24.9908
2189.52	23.2123
2190.47	27.6032
2191.42	23.4677
2192.37	24.3677
2193.32	27.6906
2194.27	26.2358
2195.22	27.37
2196.17	26
2197.12	26.8265
2198.07	25.5286
2199.02	26.0232
2199.97	26.2188
2200.92	26.9878
2201.87	26.0069
2202.82	30.3215
2203.76	30.8863
2204.71	27.5309
2205.66	24.7549
2206.61	23.0173
2207.56	23.6588
2208.51	23.9934
2209.45	27.516
2210.4	23.2017
2211.35	23.476
2212.3	23.7393
2213.24	27.1132
2214.19	25.3241
2215.14	24.6768
2216.09	24.0261
2217.03	25.4248
2217.98	26.7825
2218.93	28.535
2219.87	27.6931
2220.82	28.4229
2221.77	24.6465
2222.71	25.9337
2223.66	26.1384
2224.6	28.0307
2225.55	25.6804
2226.49	21.0294
2227.44	21.442
2228.38	22.4123
2229.33	25.6285
2230.27	27.1914
2231.22	24.401
2232.16	22.5147
2233.11	24.553
2234.05	26.5695
2235	27
2235.94	27.5087
2236.88	26.8535
2237.83	26.7059
2238.77	25.2769
2239.71	25.7737
2240.66	27.5613
2241.6	24.5309
2242	22
2242.95	27
2243.9	28
2244.84	26
2245.79	28
2246.74	23
2247.69	28
2248.63	24
2249.58	24
2250.53	29
2251.47	28
2252.42	24
2253.37	26
2254.31	25
2255.26	22
2256.2	26
2257.15	25
2258.1	22
2259.04	20
2259.99	30
2260.93	27
2261.88	22
2262.82	26
2263.77	24
2264.71	23
2265.65	26
2266.6	26
2267.54	22
2268.49	23
2269.43	26
2270.38	27
2271.32	28
2272.26	25
2273.21	25
2274.15	25
2275.09	23
2276.04	27
2276.98	28
2277.92	27
2278.86	26
2279.81	24
2280.75	24
2281.69	30
2282.63	22
2283.57	29
2284.52	28
2285.46	21
2286.4	30
2287.34	28
2288.28	24
2289.22	24
2290.16	24
2291.1	30
2292.04	27
2292.98	28
2293.93	22
2294.86	28
2295.8	24
2296.74	24
2297.69	28
2298.62	26
2299.56	26
2300.5	28
2301.44	24
2302.38	23
2303.32	30
2304.26	22
2305.2	25
2306.14	27
2307.07	26
2308.01	31
2308.95	25
2309.89	30
2310.83	23
2311.76	22
2312.7	24
2313.64	27
2314.58	25
2315.51	25
2316.45	30
2317.39	24
2318.32	22
2319.26	28
2320.2	28
2321.13	28
2322.07	28
2323	30
2323.94	28
2324.88	28
2325.81	24
2326.75	22
2327.68	26
2328.62	21
2329.55	24
2330.49	26
2331.42	28
2332.36	28
2333.29	30
2334.22	26
2335.16	26
2336.09	30
2337.03	20
2337.96	24
2338.89	31
2339.83	25
2340.76	28
2341.69	26
2342.63	26
2343.56	25
2344.49	30
2345.43	26
2346.36	30
2347.29	26
2348.22	26
2349.15	28
2350.09	27
2351.02	30
2351.95	31
2352.88	28
2353.81	24
2354.74	22
2355.67	26
2356.61	26
2357.54	24
2358.47	26
2359.4	27
2360.33	26
2361.26	27
2362.19	30
2363.12	27
2364.05	28
2364.98	26
2365.91	29
2366.84	27
2367.77	30
2368.7	27
2369.62	28
2370.55	25
2371.48	28
2372.41	29
2373.34	28
2374.27	26
2375.2	26
2376.12	25
2377.05	28
2377.98	33
2378.91	26
2379.83	23
2380.76	24
2381.69	29
2382.62	26
2383.54	30
2384.47	24
2385.4	24
2386.32	24
2387.25	25
2388.18	24
2389.1	27
2390.03	27
2390.95	35
2391.88	27
2392.81	26
2393.73	25
2394.66	28
2395.58	27
2396.51	24
2397.43	24
2398.36	26
2399.28	23
2400.2	24
2401.13	28
2402.05	26
2402.98	29
2403.9	22
2404.83	26
2405.75	26
2406.67	24
2407.6	24
2408.52	24
2409.44	20
2410.37	26
2411.29	27
2412.21	24
2413.13	26
2414.06	26
2414.98	30
2415.9	25
2416.82	29
2417.74	28
2418.67	20
2419.59	27
2420.51	27
2421.43	29
2422.35	21
2423.27	24
2424.19	20
2425.11	32
2426.03	26
2426.96	30
2427.88	27
2428.8	27
2429.72	29
2430.64	24
2431.56	28
2432.48	25
2433.39	29
2434.31	27
2435.23	29
2436.15	26
2437.07	28
2437.99	28
2438.91	34
2439.83	25
2440.75	31
2441.67	28
2442.58	25
2443.5	29
2444.42	25
2445.34	28
2446.26	28
2447.17	28
2448.09	26
2449.01	20
2449.92	25
2450.84	26
2451.76	26
2452.68	28
2453.59	24
2454.51	24
2455.42	28
2456.34	27
2457.26	27
2458.17	28
2459.09	29
2460	29
2460.92	26
2461.83	22
2462.75	26
2463.66	26
2464.58	30
2465.49	28
2466.41	18
2467.32	24
2468.24	26
2469.15	27
2470.07	28
2470.98	29
2471.89	26
2472.81	24
2473.72	25
2474.64	29
2475.55	29
2476.46	26
2477.37	28
2478.29	24
2479.2	28
2480.11	22
2481.03	26
2481.94	28
2482.85	26
2483.76	24
2484.67	24
2485.59	28
2486.5	27
2487.41	24
2488.32	28
2489.23	25
2490.14	26
2491.05	28
2491.97	24
2492.88	30
2493.79	24
2494.7	29
2495.61	28
2496.52	24
2497.43	24
2498.34	28
2499.25	27
2500.16	29
2501.07	28
2501.98	27
2502.89	20
2503.79	28
2504.7	25
2505.61	27
2506.52	24
2507.43	28
2508.34	28
2509.25	28
2510.16	28
2511.06	26
2511.97	26
2512.88	28
2513.79	26
2514.69	28
2515.6	20
2516.51	32
2517.42	27
2518.32	24
2519.23	26
2520.14	27
2521.04	26
2521.95	24
2522.86	29
2523.76	22
2524.67	29
2525.57	29
2526.48	28
2527.39	29
2528.29	28
2529.2	33
2530.1	25
2531.01	31
2531.91	24
2532.82	33
2533.72	22
2534.63	27
2535.53	28
2536.44	30
2537.34	26
2538.24	30
2539.15	24
2540.05	29
2540.96	30
2541.86	29
2542.76	30
2543.67	28
2544.57	26
2545.47	30
2546.37	28
2547.28	22
2548.18	28
2549.08	23
2549.99	20
2550.89	27
2551.79	27
2552.69	26
2553.59	26
2554.49	26
2555.4	30
2556.3	30
2557.2	29
2558.1	26
2559	18
2559.9	28
2560.8	27
2561.7	28
2562.6	28
2563.5	28
2564.4	27
2565.3	28
2566.2	26
2567.1	27
2568	30
2568.9	24
2569.8	30
2570.7	31
2571.6	22
2572.5	28
2573.4	27
2574.3	28
2575.2	22
2576.1	27
2576.99	26
2577.89	26
2578.79	26
2579.69	30
2580.59	26
2581.48	28
2582.38	24
2583.28	25
2584.18	33
2585.07	27
2585.97	28
2586.87	23
2587.76	28
2588.66	28
2589.56	25
2590.45	30
2591.35	22
2592.25	31
2593.14	24
2594.04	28
2594.93	30
2595.83	26
2596.73	30
2597.62	25
2598.52	22
2599.41	29
2600.31	29
2601.2	26
2602.1	24
2602.99	28
2603.88	28
2604.78	26
2605.67	28
2606.57	32
2607.46	24
2608.35	22
2609.25	29
2610.14	23
2611.03	24
2611.93	26
2612.82	28
2613.71	26
2614.61	26
2615.5	24
2616.39	24
2617.29	26
2618.18	31
2619.07	22
2619.96	24
2620.85	30
2621.75	22
2622.64	26
2623.53	24
2624.42	27
2625.31	28
2626.2	29
2627.09	27
2627.98	30
2628.88	28
2629.77	28
2630.66	32
2631.55	27
2632.44	25
2633.33	22
2634.22	30
2635.11	22
2636	31
2636.89	28
2637.78	28
2638.66	29
2639.55	24
2640.44	26
2641.33	24
2642.22	28
2643.11	29
2644	24
2644.89	26
2645.78	24
2646.66	31
2647.55	25
2648.44	27
2649.33	27
2650.21	31
2651.1	29
2651.99	26
2652.88	33
2653.76	25
2654.65	27
2655.54	26
2656.42	26
2657.31	28
2658.2	24
2659.08	24
2659.97	26
2660.86	24
2661.74	26
2662.63	27
2663.51	28
2664.4	26
2665.29	31
2666.17	20
2667.06	26
2667.94	28
2668.83	34
2669.71	26
2670.6	28
2671.48	31
2672.36	27
2673.25	27
2674.13	32
2675.02	27
2675.9	26
2676.78	26
2677.67	30
2678.55	22
2679.43	29
2680.32	28
2681.2	26
2682.08	25
2682.97	24
2683.85	31
2684.73	30
2685.61	28
2686.5	26
2687.38	29
2688.26	32
2689.14	27
2690.03	24
2690.91	28
2691.79	28
2692.67	27
2693.55	24
2694.43	29
2695.31	24
2696.19	28
2697.08	30
2697.96	30
2698.84	22
2699.72	28
2700.6	22
2701.48	24
2702.36	20
2703.24	22
2704.12	28
2705	24
2705.88	28
2706.76	30
2707.64	28
2708.51	25
2709.39	28
2710.27	25
2711.15	27
2712.03	32
2712.91	28
2713.79	27
2714.67	30
2715.54	29
2716.42	27
2717.3	28
2718.18	28
2719.05	26
2719.93	28
2720.81	24
2721.69	28
2722.56	28
2723.44	28
2724.32	28
2725.19	28
2726.07	29
2726.95	28
2727.82	22
2728.7	24
2729.58	26
2730.45	26
2731.33	28
2732.2	24
2733.08	26
2733.95	24
2734.83	29
2735.7	27
2736.58	23
2737.45	28
2738.33	26
2739.2	29
2740.08	27
2740.95	28
2741.83	24
2742.7	24
2743.58	27
2744.45	23
2745.32	31
2746.2	27
2747.07	26
2747.94	31
2748.82	24
2749.69	20
2750.56	28
2751.44	31
2752.31	22
2753.18	28
2754.05	31
2754.93	26
2755.8	28
2756.67	26
2757.54	28
2758.42	30
2759.29	28
2760.16	30
2761.03	24
2761.9	28
2762.77	27
2763.64	31
2764.51	28
2765.38	31
2766.26	32
2767.13	24
2768	27
2768.87	30
2769.74	20
2770.61	24
2771.48	22
2772.35	22
2773.22	28
2774.09	20
2774.96	28
2775.83	28
2776.7	31
2777.56	29
2778.43	29
2779.3	28
2780.17	24
2781.04	20
2781.91	29
2782.78	26
2783.64	27
2784.51	30
2785.38	24
2786.25	26
2787.12	27
2787.98	30
2788.85	29
2789.72	32
2790.59	24
2791.45	28
2792.32	26
2793.19	26
2794.05	26
2794.92	29
2795.79	29
2796.65	34
2797.52	25
2798.38	30
2799.25	26
2800.12	27
2800.98	27
2801.85	31
2802.71	28
2803.58	28
2804.44	28
2805.31	28
2806.17	24
2807.04	28
2807.9	27
2808.77	26
2809.63	30
2810.5	32
2811.36	30
2812.22	28
2813.09	31
2813.95	24
2814.82	26
2815.68	28
2816.54	20
2817.41	30
2818.27	28
2819.13	29
2820	27
2820.86	30
2821.72	31
2822.58	32
2823.45	26
2824.31	29
2825.17	31
2826.03	31
2826.9	26
2827.76	28
2828.62	31
2829.48	28
2830.34	26
2831.2	24
2832.06	22
2832.92	30
2833.79	26
2834.65	32
2835.51	26
2836.37	30
2837.23	28
2838.09	27
2838.95	28
2839.81	28
2840.67	31
2841.53	28
2842.39	28
2843.25	24
2844.11	29
2844.97	28
2845.83	30
2846.68	29
2847.54	24
2848.4	24
2849.26	28
2850.12	26
2850.98	26
2851.84	29
2852.69	32
2853.55	26
2854.41	27
2855.27	26
2856.13	29
2856.98	32
2857.84	31
2858.7	30
2859.56	30
2860.41	31
2861.27	30
2862.13	24
2862.98	27
2863.84	26
2864.7	31
2865.55	28
2866.41	28
2867.27	30
2868.12	31
2868.98	32
2869.83	31
2870.69	30
2871.54	30
2872.4	30
2873.25	30
2874.11	29
2874.96	30
2875.82	29
2876.68	35
2877.53	28
2878.38	30
2879.24	27
2880.09	32
2880.95	28
2881.8	38
2882.65	29
2883.51	31
2884.36	31
2885.22	28
2886.07	29
2886.92	38
2887.77	36
2888.63	36
2889.48	37
2890.33	31
2891.19	34
2892.04	36
2892.89	41
2893.74	35
2894.6	37
2895.45	45
2896.3	46
2897.15	39
2898	44
2898.85	48
2899.71	52
2900.56	48
2901.41	55
2902.26	47
2903.11	61
2903.96	58
2904.81	65
2905.66	60
2906.51	59
2907.36	58
2908.21	54
2909.06	48
2909.91	50
2910.76	61
2911.61	50
2912.46	52
2913.31	52
2914.16	40
2915.01	36
2915.86	43
2916.71	39
2917.56	47
2918.41	39
2919.26	34
2920.1	39
2920.95	39
2921.8	32
2922.65	35
2923.5	35
2924.34	30
2925.19	31
2926.04	36
2926.89	31
2927.74	33
2928.58	32
2929.43	30
2930.28	34
2931.12	29
2931.97	28
2932.82	27
2933.66	32
2934.51	28
2935.36	32
2936.2	27
2937.05	32
2937.89	28
2938.74	27
2939.59	30
2940.43	33
2941.28	34
2942.12	33
2942.97	24
2943.81	28
2944.66	28
2945.5	28
2946.35	33
2947.19	24
2948.04	28
2948.88	25
2949.72	28
2950.57	32
2951.41	32
2952.26	30
2953.1	35
2953.94	28
2954.79	35
2955.63	34
2956.47	34
2957.32	34
2958.16	32
2959	30
2959.85	36
2960.69	38
2961.53	37
2962.37	40
2963.22	40
2964.06	43
2964.9	36
2965.74	43
2966.58	40
2967.42	40
2968.27	40
2969.11	38
2969.95	43
2970.79	39
2971.63	37
2972.47	31
2973.31	32
2974.15	35
2974.99	32
2975.83	34
2976.68	33
2977.52	34
2978.36	30
2979.2	33
2980.04	31
2980.88	31
2981.71	34
2982.55	31
2983.39	24
2984.23	26
2985.07	22
2985.91	27
2986.75	32
2987.59	32
2988.43	25
2989.27	28
2990.1	31
2990.94	25
2991.78	24
2992.62	26
2993.46	30
2994.3	24
2995.13	28
2995.97	27
2996.81	30
2997.64	30
2998.48	32
2999.32	28
