#Acq. time (s)=	3
#Accumulations=	3
#Range (cm-¹)=	100...3000
#Windows=	3
#Autofocus=	Off
#AutoExposure=	Off
#Spike filter=	Multiple accum.
#Delay time (s)=	0
#Binning=	1
#Readout mode=	Signal
#DeNoise=	Off
#ICS correction=	Off
#Dark correction=	Off
#Inst. Process=	Off
#Instrument=	LabRAM HR Evol
#Detector=	Syncerity OE
#Objective=	x100_VIS_LWD
#Grating=	600 (500nm)
#ND Filter=	25%
#Laser=	633nm_Edge
#Hole=	100.021
#Range=	Visible
#Project=	Bolus
#Sample=	A4
#Site=	stripside
#Title=	m07
#Remark=	
#Date=	03.11.2025 17:24
#Acquired=	03.11.2025 17:24:48
100.969	25
102.252	41
103.535	36
104.818	30
106.101	34
107.384	33
108.666	33
109.948	32
111.232	33
112.514	36
113.795	28
115.077	33
116.358	39
117.639	32
118.919	36
120.2	28
121.48	27
122.76	33
124.04	33
125.32	30
126.599	33
127.879	35
129.158	37
130.436	34
131.715	33
132.992	39
134.27	37
135.548	35
136.826	40
138.104	34
139.381	42
140.658	41
141.935	34
143.212	36
144.489	37
145.763	32
147.04	30
148.315	38
149.591	36
150.867	39
152.142	36
153.416	42
154.691	42
155.965	35
157.24	38
158.514	36
159.786	36
161.06	36
162.334	42
163.607	40
164.881	32
166.152	43
167.425	38
168.698	40
169.969	35
171.241	38
172.513	42
173.785	34
175.055	39
176.326	38
177.597	35
178.867	37
180.137	41
181.408	30
182.677	36
183.947	37
185.217	30
186.485	39
187.755	43
189.022	42
190.291	44
191.56	44
192.828	36
194.096	45
195.363	33
196.631	36
197.899	44
199.165	38
200.432	38
201.698	40
202.965	40
204.23	40
205.497	43
206.762	42
208.028	38
209.293	37
210.559	38
211.823	32
213.088	41
214.352	35
215.617	36
216.88	39
218.145	37
219.408	36
220.672	40
221.934	32
223.196	32
224.46	37
225.722	36
226.985	34
228.246	36
229.508	36
230.77	34
232.031	38
233.292	38
234.554	30
235.814	32
237.074	29
238.335	34
239.595	26
240.854	39
242.115	31
243.374	39
244.633	34
245.893	35
247.151	36
248.409	30
249.667	27
250.927	35
252.184	37
253.442	32
254.699	34
255.957	37
257.214	30
258.47	32
259.727	32
260.983	30
262.24	33
263.496	39
264.752	34
266.007	31
267.262	42
268.517	38
269.773	31
271.028	39
272.282	31
273.536	32
274.79	31
276.044	34
277.297	30
278.551	30
279.804	38
281.057	34
282.31	38
283.564	37
284.816	34
286.068	36
287.32	29
288.572	29
289.823	37
291.074	28
292.325	36
293.576	38
294.827	32
296.077	34
297.328	34
298.578	32
299.828	30
301.077	31
302.325	36
303.575	32
304.824	35
306.073	32
307.321	35
308.57	34
309.818	31
311.066	35
312.314	33
313.562	34
314.808	29
316.055	32
317.302	36
318.549	36
319.796	28
321.042	35
322.288	32
323.533	34
324.779	32
326.024	30
327.27	32
328.515	34
329.759	35
331.004	36
332.248	34
333.493	30
334.736	37
335.98	31
337.223	38
338.466	34
339.709	36
340.952	34
342.195	39
343.437	34
344.68	31
345.922	32
347.163	36
348.405	33
349.647	34
350.887	28
352.128	38
353.37	36
354.609	36
355.85	36
357.089	30
358.33	37
359.57	33
360.809	32
362.049	31
363.287	32
364.526	32
365.764	36
367.003	36
368.241	30
369.479	30
370.718	32
371.955	36
373.193	34
374.429	36
375.667	36
376.903	36
378.139	32
379.376	34
380.611	37
381.848	36
383.083	30
384.319	36
385.554	35
386.79	34
388.024	28
389.258	34
390.493	34
391.727	40
392.962	35
394.195	36
395.428	36
396.663	31
397.895	34
399.128	32
400.361	35
401.593	28
402.825	35
404.058	36
405.29	35
406.521	32
407.752	34
408.985	34
410.215	30
411.446	30
412.678	34
413.908	30
415.138	34
416.367	34
417.597	35
418.828	33
420.057	28
421.286	39
422.514	32
423.743	28
424.973	40
426.201	38
427.429	36
428.657	37
429.884	35
431.112	34
432.34	36
433.567	34
434.794	33
436.02	34
437.247	32
438.473	34
439.699	38
440.925	34
442.15	36
443.376	38
444.601	32
445.826	30
447.051	34
448.275	32
449.5	36
450.724	34
451.948	32
453.172	30
454.396	34
455.619	35
456.842	36
458.065	36
459.288	34
460.511	35
461.733	33
462.956	35
464.178	36
465.4	37
466.621	32
467.843	36
469.064	38
470.285	36
471.505	33
472.726	38
473.946	36
475.166	38
476.387	42
477.606	44
478.825	44
480.044	40
481.264	43
482.483	50
483.702	50
484.921	50
486.138	55
487.356	56
488.574	47
489.792	61
491.009	52
492.226	56
493.444	50
494.661	50
495.877	48
497.094	53
498.31	42
499.525	36
500.741	45
501.958	43
503.172	47
504.388	38
505.603	40
506.817	43
508.032	39
509.247	38
510.46	36
511.675	40
512.888	41
514.102	38
515.316	34
516.528	33
517.742	38
518.954	32
520.167	32
521.378	38
522.591	38
523.802	32
525.015	35
526.226	37
527.438	39
528.648	32
529.86	34
531.07	32
532.281	37
533.491	39
534.702	30
535.911	37
537.121	28
538.33	38
539.54	29
540.749	31
541.957	32
543.167	36
544.375	30
545.584	32
546.791	32
547.999	29
549.207	37
550.414	30
551.621	35
552.829	32
554.035	29
555.241	30
556.449	30
557.655	34
558.86	30
560.066	33
561.272	26
562.477	34
563.682	28
564.888	34
566.093	36
567.297	30
568.501	30
569.705	34
570.91	33
572.114	32
573.317	30
574.52	34
575.723	34
576.927	30
578.13	28
579.332	36
580.535	26
581.737	34
582.938	35
584.14	36
585.343	36
586.544	34
587.745	28
588.946	38
590.147	31
591.347	34
592.548	36
593.748	33
594.948	34
596.147	32
597.347	29
598.546	35
599.745	34
600.944	34
602.143	33
603.342	40
604.54	32
605.738	35
606.937	39
608.134	32
609.332	34
610.529	36
611.727	33
612.924	35
614.121	32
615.317	31
616.513	34
617.709	32
618.905	32
620.101	35
621.297	36
622.492	35
623.688	33
624.883	32
626.077	36
627.271	36
628.466	35
629.66	35
630.855	34
632.047	29
633.241	35
634.435	32
635.629	36
636.82	36
638.014	37
639.207	34
640.399	29
641.59	38
642.783	35
643.975	33
645.166	33
646.357	31
647.549	36
648.741	38
649.93	32
651.122	32
652.311	35
653.502	30
654.692	38
655.881	35
657.071	36
658.261	36
659.45	36
660.639	30
661.827	37
663.016	30
664.204	37
665.393	39
666.581	34
667.769	36
668.957	33
670.143	37
671.331	37
672.518	31
673.705	36
674.891	33
676.078	36
677.264	36
678.451	36
679.636	36
680.821	32
682.007	32
683.192	34
684.378	34
685.562	42
686.747	36
687.931	41
689.115	38
690.3	36
691.483	36
692.666	34
693.851	34
695.034	32
696.216	41
697.4	35
698.582	44
699.764	38
700.948	43
702.129	41
703.311	37
704.493	44
705.674	44
706.855	44
708.036	42
709.218	48
710.399	46
711.579	42
712.759	45
713.939	46
715.12	32
716.299	36
717.478	39
718.657	34
719.836	36
721.015	34
722.195	34
723.373	32
724.552	37
725.729	34
726.907	34
728.085	33
729.262	34
730.44	38
731.617	34
732.795	34
733.972	30
735.148	32
736.324	30
737.501	31
738.677	33
739.852	31
741.028	28
742.203	32
743.379	30
744.554	31
745.729	35
746.903	33
748.078	28
749.252	36
750.426	35
751.599	33
752.772	30
753.946	37
755.119	28
756.293	36
757.466	36
758.639	30
759.811	34
760.984	35
762.155	32
763.327	33
764.499	35
765.67	32
766.842	35
768.013	32
769.183	30
770.354	31
771.525	32
772.696	31
773.865	34
775.035	32
776.205	30
777.375	32
778.544	38
779.713	33
780.882	35
782.052	34
783.219	30
784.388	36
785.557	36
786.724	35
787.892	37
789.06	35
790.227	34
791.395	33
792.562	34
793.728	28
794.895	34
796.061	39
797.228	35
798.395	35
799.56	33
800.726	34
801.891	36
803.057	34
804.221	28
805.387	32
806.551	32
807.716	34
808.879	31
810.044	36
811.208	37
812.372	40
813.535	32
814.699	32
815.862	32
817.025	39
818.188	31
819.351	30
820.513	32
821.675	35
822.837	30
823.999	33
825.161	36
826.322	34
827.483	36
828.645	31
829.805	31
830.966	30
832.127	28
833.287	31
834.447	34
835.607	34
836.767	32
837.926	31
839.085	33
840.245	30
841.404	32
842.562	32
843.72	33
844.88	39
846.038	40
847.195	28
848.353	32
849.512	38
850.669	36
851.826	32
852.983	41
854.139	30
855.296	34
856.453	33
857.609	30
858.765	38
859.921	32
861.077	34
862.232	34
863.387	36
864.542	34
865.697	32
866.852	30
868.008	34
869.162	24
870.316	31
871.47	37
872.624	33
873.778	34
874.931	38
876.084	32
877.237	32
878.39	36
879.543	33
880.695	35
881.846	32
882.999	32
884.151	34
885.302	30
886.454	34
887.606	31
888.757	33
889.908	31
891.059	33
892.21	34
893.359	28
894.509	33
895.659	24
896.81	32
897.959	30
899.109	32
900.257	30
901.407	36
902.556	35
903.705	33
904.854	32
906.001	32
907.149	34
908.298	30
909.446	38
910.592	34
911.74	36
912.888	34
914.034	31
915.181	33
916.328	38
917.473	34
918.62	33
919.766	33
920.911	29
922.058	31
923.204	40
924.348	39
925.494	31
926.638	34
927.783	31
928.928	33
930.072	38
931.216	37
932.36	28
933.504	34
934.647	32
935.791	32
936.933	28
938.077	31
939.219	35
940.363	34
941.504	28
942.647	32
943.789	34
944.932	31
946.073	34
947.215	30
948.356	34
949.498	32
950.638	34
951.778	30
952.92	33
954.06	31
955.199	33
956.34	32
957.479	32
958.62	36
959.759	24
960.898	34
962.038	36
963.176	25
964.315	28
965.453	32
966.592	30
967.73	26
968.867	29
970.006	28
971.144	33
972.281	38
973.418	26
974.554	28
975.692	28
976.829	34
977.965	30
979.101	33
980.237	37
981.374	30
982.509	40
983.645	24
984.78	28
985.915	28
987.05	32
988.184	31
989.319	27
990.453	32
991.589	32
992.722	31
993.856	35
994.99	38
996.123	36
997.257	36
998.39	30
999.523	28
1000.66	29
1001.79	26
1002.92	34
1004.05	32
1005.18	28
1006.32	34
1007.45	32
1008.58	30
1009.71	26
1010.84	37
1011.97	31
1013.1	22
1014.23	30
1015.36	41
1016.49	30
1017.62	26
1018.75	30
1019.88	30
1021.01	31
1022.14	32
1023.27	31
1024.4	32
1025.53	29
1026.66	26
1027.79	32
1028.91	32
1030.04	31
1031.17	34
1032.3	30
1033.42	30
1034.55	28
1035.68	30
1036.81	30
1037.93	33
1039.06	26
1040.18	30
1041.31	32
1042.44	29
1043.56	30
1044.69	28
1045.81	30
1046.94	30
1048.06	32
1049.19	30
1050.31	30
1051.44	30
1052.56	32
1053.69	28
1054.81	34
1055.93	33
1057.06	28
1058.18	28
1059.3	32
1060.43	30
1061.55	32
1062.67	31
1063.79	34
1064.92	29
1066.04	30
1067.16	27
1068.28	28
1069.4	29
1070.52	30
1071.65	29
1072.77	35
1073.89	32
1075.01	31
1076.13	30
1077.25	30
1078.37	30
1079.49	34
1080.61	35
1081.73	30
1082.85	28
1083.97	26
1085.09	33
1086.2	37
1087.32	28
1088.44	35
1089.56	29
1090.68	27
1091.8	30
1092.91	34
1094.03	37
1095.15	34
1096.26	24
1097.38	34
1098.5	30
1099.61	33
1100.73	30
1101.85	32
1102.96	32
1104.08	30
1105.19	29
1106.31	30
1107.43	32
1108.54	32
1109.66	30
1110.77	31
1111.88	32
1113	28
1114.11	26
1115.23	33
1116.34	33
1117.46	28
1118.57	28
1119.68	29
1120.8	30
1121.91	29
1123.02	30
1124.13	28
1125.25	30
1126.36	28
1127.47	32
1128.58	29
1129.69	28
1130.8	32
1131.92	29
1133.03	34
1134.14	33
1135.25	32
1136.36	29
1137.47	36
1138.58	29
1139.69	33
1140.8	34
1141.91	28
1143.02	36
1144.13	31
1145.24	32
1146.35	29
1147.46	32
1148.56	30
1149.67	33
1150.78	28
1151.89	28
1153	33
1154.1	30
1155.21	28
1156.32	31
1157.43	30
1158.53	32
1159.64	27
1160.75	30
1161.85	30
1162.96	24
1164.07	26
1165.17	34
1166.28	23
1167.38	34
1168.49	30
1169.59	28
1170.7	34
1171.8	30
1172.91	33
1174.01	31
1175.12	34
1176.22	33
1177.32	30
1178.43	28
1179.53	30
1180.64	26
1181.74	34
1182.84	26
1183.94	30
1185.05	36
1186.15	32
1187.25	29
1188.35	30
1189.46	26
1190.56	26
1191.66	27
1192.76	34
1193.86	34
1194.96	27
1196.06	28
1197.16	27.9668
1198.26	33.796
1199.37	29.9352
1200.47	32.8478
1201.57	30.0588
1202.67	29.7136
1203.77	32.2806
1204.86	32.4609
1205.96	25.8968
1207.06	26.8031
1208.16	27.0583
1209.26	29.504
1210.36	26.8717
1211.46	26.5703
1212.56	27.3055
1213.65	30.3507
1214.75	26.5105
1215.85	31.6373
1216.95	28.2907
1218.04	29.7037
1219.14	28.0988
1220.24	29.8422
1221.33	27.041
1222.43	29.3622
1223.53	27.8132
1224.62	26.6068
1225.72	31.342
1226.82	29.8424
1227.91	32.2197
1229.01	27.3579
1230.1	29.8949
1231.2	28.9468
1232.29	28.7884
1233.39	26.9112
1234.48	25.0029
1235.58	26.7157
1236.67	27.8558
1237.77	30.5515
1238.86	30.6523
1239.95	26.8186
1241.05	26.4412
1242.14	31.0131
1243.23	27.5429
1244.33	24.3376
1245.42	29.9004
1246.51	29.7415
1247.61	29.6945
1248.7	26.3707
1249.79	29.2794
1250.88	27.3408
1251.97	26.7113
1253.07	26.2185
1254.16	27.4949
1255.25	29.3997
1256.34	28.6025
1257.43	28
1258.52	31.1569
1259.61	29.3004
1260.7	29.8307
1261.79	29.3245
1262.88	30.6853
1263.97	27.4385
1265.06	30.4235
1266.15	28.9383
1267.24	26.478
1268.33	27.0236
1269.42	25.6448
1270.51	28.6192
1271.6	28.4109
1272.68	29.6478
1273.77	26.5312
1274.86	28.8682
1275.95	30.2162
1277.04	27.6978
1278.12	30.3662
1279.21	28.5989
1280.3	28.8387
1281.39	31.2437
1282.47	29.2669
1283.56	28.3442
1284.65	27.4882
1285.73	28.1038
1286.82	26.681
1287.91	27.1846
1288.99	24.2853
1290.08	31.3479
1291.16	33.3209
1292.25	30.8784
1293.33	24.235
1294.42	27.7531
1295.5	25.6447
1296.59	32.3146
1297.67	25.5928
1298.76	23.8068
1299.84	29.3702
1300.92	25.3448
1302.01	28.0934
1303.09	29.109
1304.17	30.4956
1305.26	25.9481
1306.34	25.2272
1307.34	28
1308.43	28
1309.52	28
1310.61	29
1311.7	34
1312.78	27
1313.87	28
1314.96	29
1316.04	30
1317.13	33
1318.22	28
1319.3	24
1320.39	33
1321.48	27
1322.56	26
1323.65	25
1324.73	30
1325.82	28
1326.9	28
1327.99	29
1329.07	27
1330.16	27
1331.24	26
1332.33	27
1333.41	32
1334.5	32
1335.58	28
1336.66	28
1337.75	28
1338.83	37
1339.91	35
1341	28
1342.08	26
1343.16	24
1344.24	27
1345.33	33
1346.41	27
1347.49	28
1348.57	29
1349.65	30
1350.74	26
1351.82	32
1352.9	26
1353.98	22
1355.06	26
1356.14	24
1357.22	29
1358.3	26
1359.38	29
1360.46	28
1361.54	25
1362.62	31
1363.7	29
1364.78	26
1365.86	28
1366.94	34
1368.02	29
1369.09	24
1370.17	29
1371.25	24
1372.33	30
1373.41	24
1374.48	31
1375.56	28
1376.64	28
1377.72	22
1378.79	24
1379.87	33
1380.95	24
1382.02	33
1383.1	28
1384.17	31
1385.25	30
1386.33	28
1387.4	30
1388.48	24
1389.55	28
1390.63	31
1391.7	22
1392.78	32
1393.85	28
1394.93	28
1396	32
1397.07	31
1398.15	30
1399.22	33
1400.3	23
1401.37	32
1402.44	32
1403.52	32
1404.59	32
1405.66	24
1406.73	30
1407.81	33
1408.88	28
1409.95	32
1411.02	30
1412.09	31
1413.17	36
1414.24	29
1415.31	33
1416.38	32
1417.45	32
1418.52	28
1419.59	32
1420.66	34
1421.73	30
1422.8	28
1423.87	29
1424.94	28
1426.01	32
1427.08	32
1428.15	30
1429.22	28
1430.29	29
1431.35	26
1432.42	34
1433.49	29
1434.56	28
1435.63	32
1436.69	32
1437.76	31
1438.83	28
1439.9	30
1440.96	26
1442.03	24
1443.1	29
1444.17	28
1445.23	24
1446.3	27
1447.36	29
1448.43	32
1449.49	26
1450.56	34
1451.63	30
1452.69	32
1453.76	31
1454.82	30
1455.89	27
1456.95	30
1458.01	32
1459.08	29
1460.14	26
1461.21	34
1462.27	31
1463.34	29
1464.4	30
1465.46	30
1466.52	32
1467.59	30
1468.65	30
1469.71	28
1470.77	35
1471.84	31
1472.9	31
1473.96	22
1475.02	30
1476.08	30
1477.15	24
1478.21	28
1479.27	30
1480.33	27
1481.39	29
1482.45	34
1483.51	33
1484.57	24
1485.63	29
1486.69	26
1487.75	32
1488.81	36
1489.87	31
1490.93	33
1491.99	30
1493.05	31
1494.1	30
1495.16	28
1496.22	28
1497.28	30
1498.34	35
1499.4	28
1500.45	32
1501.51	28
1502.57	30
1503.63	31
1504.68	30
1505.74	31
1506.8	28
1507.85	28
1508.91	20
1509.97	29
1511.02	30
1512.08	31
1513.13	24
1514.19	28
1515.24	26
1516.3	36
1517.35	26
1518.41	30
1519.46	28
1520.52	30
1521.57	27
1522.63	28
1523.68	24
1524.73	30
1525.79	30
1526.84	22
1527.9	26
1528.95	24
1530	35
1531.05	28
1532.11	31
1533.16	28
1534.21	32
1535.26	30
1536.32	32
1537.37	30
1538.42	31
1539.47	32
1540.52	24
1541.57	28
1542.63	30
1543.68	30
1544.73	26
1545.78	26
1546.83	28
1547.88	28
1548.93	28
1549.98	25
1551.03	32
1552.08	34
1553.13	26
1554.18	27
1555.23	30
1556.27	26
1557.32	32
1558.37	29
1559.42	30
1560.47	27
1561.52	35
1562.56	26
1563.61	30
1564.66	30
1565.71	31
1566.75	30
1567.8	29
1568.85	32
1569.9	35
1570.94	28
1571.99	33
1573.03	28
1574.08	31
1575.13	30
1576.17	27
1577.22	36
1578.26	30
1579.31	34
1580.35	28
1581.4	32
1582.44	29
1583.49	28
1584.53	24
1585.58	30
1586.62	31
1587.66	28
1588.71	34
1589.75	33
1590.8	27
1591.84	25
1592.88	24
1593.92	31
1594.97	28
1596.01	31
1597.05	28
1598.1	31
1599.14	29
1600.18	32
1601.22	28
1602.26	32
1603.3	31
1604.35	30
1605.39	31
1606.43	28
1607.47	36
1608.51	26
1609.55	24
1610.59	28
1611.63	28
1612.67	30
1613.71	22
1614.75	28
1615.79	32
1616.83	24
1617.87	32
1618.91	25
1619.95	34
1620.99	33
1622.02	20
1623.06	31
1624.1	28
1625.14	33
1626.18	28
1627.21	32
1628.25	36
1629.29	29
1630.33	26
1631.36	30
1632.4	32
1633.44	28
1634.48	27
1635.51	30
1636.55	30
1637.58	30
1638.62	33
1639.66	31
1640.69	28
1641.73	26
1642.76	26
1643.8	31
1644.83	27
1645.87	31
1646.9	28
1647.94	25
1648.97	30
1650	28
1651.04	29
1652.07	34
1653.11	32
1654.14	29
1655.17	29
1656.21	24
1657.24	33
1658.27	26
1659.31	32
1660.34	30
1661.37	32
1662.4	28
1663.43	26
1664.47	29
1665.5	32
1666.53	28
1667.56	20
1668.59	28
1669.62	32
1670.66	20
1671.69	30
1672.72	26
1673.75	27
1674.78	31
1675.81	28
1676.84	27
1677.87	30
1678.9	28
1679.93	29
1680.96	31
1681.98	32
1683.01	26
1684.04	30
1685.07	29
1686.1	27
1687.13	30
1688.16	35
1689.18	29
1690.21	29
1691.24	32
1692.27	30
1693.3	31
1694.32	30
1695.35	29
1696.38	25
1697.4	28
1698.43	29
1699.46	28
1700.48	32
1701.51	28
1702.54	30
1703.56	31
1704.59	30
1705.61	30
1706.64	30
1707.66	28
1708.69	30
1709.71	29
1710.74	28
1711.76	33
1712.79	26
1713.81	29
1714.83	25
1715.86	28
1716.88	24
1717.91	27
1718.93	27
1719.95	26
1720.98	29
1722	26
1723.02	26
1724.04	32
1725.07	29
1726.09	28
1727.11	31
1728.13	28
1729.15	34
1730.18	32
1731.2	27
1732.22	26
1733.24	31
1734.26	32
1735.28	32
1736.3	30
1737.32	29
1738.34	25
1739.36	26
1740.38	29
1741.4	30
1742.42	31
1743.44	30
1744.46	30
1745.48	28
1746.5	28
1747.52	32
1748.54	26
1749.56	28
1750.58	33
1751.6	30
1752.61	27
1753.63	29
1754.65	24
1755.67	30
1756.68	30
1757.7	35
1758.72	27
1759.74	30
1760.75	27
1761.77	32
1762.79	31
1763.8	28
1764.82	28
1765.83	27
1766.85	30
1767.87	29
1768.88	26
1769.9	30
1770.91	33
1771.93	33
1772.94	26
1773.96	26
1774.97	33
1775.99	27
1777	28
1778.02	32
1779.03	29
1780.04	26
1781.06	31
1782.07	29
1783.09	26
1784.1	26
1785.11	32
1786.13	30
1787.14	30
1788.15	30
1789.16	32
1790.18	30
1791.19	29
1792.2	29
1793.21	24
1794.22	28
1795.23	31
1796.25	28
1797.26	31
1798.27	26
1799.28	29
1800.29	30
1801.3	26
1802.31	26
1803.32	26
1804.33	22
1805.34	28
1806.35	28
1807.36	24
1808.37	26
1809.38	22
1810.39	26
1811.4	30
1812.41	28
1813.42	28
1814.42	30
1815.43	22
1816.44	28
1817.45	31
1818.46	34
1819.47	30
1820.47	32
1821.48	28
1822.49	31
1823.49	30
1824.5	30
1825.51	30
1826.52	28
1827.52	32
1828.53	30
1829.53	32
1830.54	28
1831.55	34
1832.55	28
1833.56	29
1834.56	29
1835.57	27
1836.57	28
1837.58	26
1838.58	30
1839.59	26
1840.59	26
1841.6	32
1842.6	22
1843.61	27
1844.61	30
1845.61	24
1846.62	29
1847.62	29
1848.62	30
1849.63	26
1850.63	24
1851.63	30
1852.64	26
1853.64	28
1854.64	30
1855.64	33
1856.64	28
1857.65	33
1858.65	29
1859.65	28
1860.65	24
1861.65	30
1862.65	28
1863.65	22
1864.66	28
1865.66	29
1866.66	28
1867.66	30
1868.66	22
1869.66	32
1870.66	30
1871.66	28
1872.66	24
1873.66	26
1874.66	30
1875.65	28
1876.65	30
1877.65	30
1878.65	30
1879.65	24
1880.65	30
1881.65	25
1882.64	26
1883.64	29
1884.64	30
1885.64	25
1886.63	28
1887.63	26
1888.63	30
1889.63	27
1890.62	24
1891.62	26
1892.62	31
1893.61	25
1894.61	29
1895.6	32
1896.6	29
1897.6	31
1898.59	24
1899.59	28
1900.58	30
1901.58	34
1902.57	30
1903.57	26
1904.56	30
1905.56	27
1906.55	31
1907.54	22
1908.54	30
1909.53	31
1910.53	34
1911.52	30
1912.51	28
1913.51	30
1914.5	31
1915.49	29
1916.49	23
1917.48	30
1918.47	31
1919.46	29
1920.46	30
1921.45	30
1922.44	22
1923.43	29
1924.42	28
1925.41	28
1926.41	23
1927.4	27
1928.39	23
1929.38	24
1930.37	26
1931.36	26
1932.35	31
1933.34	30
1934.33	26
1935.32	24
1936.31	22
1937.3	30
1938.29	26
1939.28	30
1940.27	29
1941.26	25
1942.24	26
1943.23	36
1944.22	26
1945.21	28
1946.2	26
1947.19	28
1948.17	36
1949.16	29
1950.15	30
1951.14	31
1952.12	32
1953.11	29
1954.1	25
1955.09	26
1956.07	29
1957.06	28
1958.05	26
1959.03	29
1960.02	33
1961	30
1961.99	28
1962.98	27
1963.96	26
1964.95	22
1965.93	24
1966.92	30
1967.9	32
1968.89	29
1969.87	26
1970.85	32
1971.84	26
1972.82	26
1973.81	31
1974.79	22
1975.78	32
1976.76	30
1977.74	31
1978.73	25
1979.71	28
1980.69	30
1981.67	28
1982.66	32
1983.64	27
1984.62	26
1985.6	28
1986.59	20
1987.57	30
1988.55	24
1989.53	30
1990.51	28
1991.49	28
1992.47	32
1993.45	26
1994.44	29
1995.42	24
1996.4	31
1997.38	31
1998.36	29
1999.34	25
2000.32	27
2001.3	24
2002.28	26
2003.26	31
2004.24	27
2005.22	32
2006.19	27
2007.17	32
2008.15	26
2009.13	24
2010.11	27
2011.09	28
2012.06	30
2013.04	27
2014.02	27
2015	28
2015.98	25
2016.95	28
2017.93	28
2018.91	22
2019.88	28
2020.86	26
2021.84	28
2022.81	28
2023.79	28
2024.77	26
2025.74	24
2026.72	28
2027.69	20
2028.67	35
2029.65	28
2030.62	29
2031.6	26
2032.57	28
2033.55	21
2034.52	29
2035.5	24
2036.47	29
2037.44	27
2038.42	27
2039.39	27
2040.36	25
2041.34	30
2042.31	31
2043.29	26
2044.26	26
2045.23	25
2046.2	26
2047.18	24
2048.15	27
2049.12	24
2050.09	26
2051.07	25
2052.04	26
2053.01	28
2053.98	24
2054.95	24
2055.93	27
2056.9	27
2057.87	27
2058.84	26
2059.81	28
2060.78	28
2061.75	30
2062.72	28
2063.69	28
2064.66	23
2065.63	32
2066.6	26
2067.57	28
2068.54	23
2069.51	27
2070.48	24
2071.45	27
2072.42	29
2073.38	28
2074.35	34
2075.32	32
2076.29	29
2077.26	28
2078.23	24
2079.19	26
2080.16	24
2081.13	30
2082.1	26
2083.06	27
2084.03	27
2085	27
2085.96	26
2086.93	28
2087.9	29
2088.86	31
2089.83	30
2090.8	29
2091.76	26
2092.73	27
2093.69	22
2094.66	23
2095.62	32
2096.59	27
2097.55	24
2098.52	23
2099.48	28
2100.45	27
2101.41	28
2102.38	28
2103.34	29
2104.31	30
2105.27	28
2106.23	24
2107.2	31
2108.16	22
2109.12	30
2110.09	29
2111.05	30
2112.01	27
2112.98	27
2113.94	22
2114.9	28
2115.86	23
2116.82	22
2117.79	33
2118.75	27
2119.71	28
2120.67	30
2121.63	29
2122.59	30
2123.55	24
2124.52	28
2125.48	26
2126.44	26
2127.4	26
2128.36	26
2129.32	29
2130.28	28
2131.24	30
2132.2	28
2133.16	28
2134.12	23
2135.08	29
2136.04	29
2136.99	29
2137.95	28
2138.91	25
2139.87	26
2140.83	26
2141.79	32
2142.75	27
2143.7	27
2144.66	32
2145.62	28.9575
2146.58	26.8195
2147.53	25.9208
2148.49	28.0945
2149.45	29.9118
2150.41	26.1155
2151.36	23.4292
2152.32	27.8308
2153.27	32.0139
2154.23	25.8331
2155.19	28.9113
2156.14	20.3343
2157.1	26.9955
2158.06	28.6111
2159.01	27.9926
2159.97	23.4429
2160.92	27.8676
2161.88	30.2807
2162.83	24.9214
2163.79	25.7647
2164.74	30.797
2165.7	23.7952
2166.65	24.5588
2167.61	26.3042
2168.56	29.0273
2169.51	26.2648
2170.47	26.7348
2171.42	23.5826
2172.38	29.8572
2173.33	25.2372
2174.28	26.718
2175.24	24.895
2176.19	25.7459
2177.14	26.3972
2178.09	28.2878
2179.05	28.0387
2180	24.7157
2180.95	27.2287
2181.9	25.2451
2182.86	23.2905
2183.81	27.5464
2184.76	24.9928
2185.71	28.4867
2186.66	24.1838
2187.61	27
2188.57	29.2157
2189.52	26.2123
2190.47	25
2191.42	27.385
2192.37	27.4118
2193.32	29.8453
2194.27	26.8946
2195.22	25.2594
2196.17	20.1296
2197.12	25.0262
2198.07	27.1584
2199.02	25.6618
2199.97	27
2200.92	26.2145
2201.87	25.4236
2202.82	26.1598
2203.76	26.3196
2204.71	25.6613
2205.66	26.8676
2206.61	24.8183
2207.56	23.4077
2208.51	23.8756
2209.45	25.5143
2210.4	22.9907
2211.35	26.4518
2212.3	24.2286
2213.24	24.299
2214.19	24.519
2215.14	25.0369
2216.09	26.6439
2217.03	26.6725
2217.98	22.7175
2218.93	27.5266
2219.87	24.7715
2220.82	24.6801
2221.77	28.898
2222.71	27.7673
2223.66	27.8115
2224.6	27.8093
2225.55	25.998
2226.49	21.599
2227.44	26.2156
2228.38	28.0376
2229.33	27.3971
2230.27	27.0733
2231.22	25.401
2232.16	24.6464
2233.11	26.9942
2234.05	24.7633
2235	24.4276
2235.94	26.9537
2236.88	25.0799
2237.83	24.1912
2238.77	24.9314
2239.71	25.049
2240.66	26.7133
2241.6	27.9608
2242	28
2242.95	27
2243.9	26
2244.84	27
2245.79	27
2246.74	24
2247.69	28
2248.63	25
2249.58	32
2250.53	24
2251.47	31
2252.42	25
2253.37	26
2254.31	20
2255.26	30
2256.2	22
2257.15	27
2258.1	23
2259.04	29
2259.99	26
2260.93	25
2261.88	26
2262.82	28
2263.77	23
2264.71	26
2265.65	26
2266.6	26
2267.54	26
2268.49	25
2269.43	30
2270.38	24
2271.32	28
2272.26	26
2273.21	26
2274.15	22
2275.09	30
2276.04	30
2276.98	23
2277.92	26
2278.86	26
2279.81	25
2280.75	24
2281.69	27
2282.63	28
2283.57	23
2284.52	22
2285.46	27
2286.4	22
2287.34	28
2288.28	26
2289.22	24
2290.16	28
2291.1	22
2292.04	28
2292.98	28
2293.93	24
2294.86	23
2295.8	25
2296.74	22
2297.69	24
2298.62	31
2299.56	26
2300.5	28
2301.44	28
2302.38	30
2303.32	28
2304.26	21
2305.2	27
2306.14	27
2307.07	28
2308.01	26
2308.95	26
2309.89	27
2310.83	26
2311.76	29
2312.7	25
2313.64	27
2314.58	25
2315.51	27
2316.45	24
2317.39	24
2318.32	29
2319.26	24
2320.2	24
2321.13	24
2322.07	26
2323	26
2323.94	20
2324.88	26
2325.81	28
2326.75	27
2327.68	24
2328.62	25
2329.55	29
2330.49	29
2331.42	31
2332.36	23
2333.29	27
2334.22	24
2335.16	27
2336.09	25
2337.03	28
2337.96	25
2338.89	28
2339.83	25
2340.76	24
2341.69	26
2342.63	26
2343.56	29
2344.49	26
2345.43	26
2346.36	26
2347.29	28
2348.22	24
2349.15	27
2350.09	26
2351.02	28
2351.95	26
2352.88	26
2353.81	24
2354.74	30
2355.67	34
2356.61	27
2357.54	29
2358.47	28
2359.4	26
2360.33	24
2361.26	26
2362.19	27
2363.12	29
2364.05	27
2364.98	24
2365.91	30
2366.84	28
2367.77	23
2368.7	28
2369.62	28
2370.55	29
2371.48	22
2372.41	32
2373.34	24
2374.27	28
2375.2	28
2376.12	24
2377.05	23
2377.98	26
2378.91	23
2379.83	26
2380.76	20
2381.69	30
2382.62	25
2383.54	29
2384.47	28
2385.4	25
2386.32	26
2387.25	30
2388.18	24
2389.1	26
2390.03	24
2390.95	31
2391.88	23
2392.81	26
2393.73	28
2394.66	29
2395.58	24
2396.51	24
2397.43	31
2398.36	30
2399.28	30
2400.2	27
2401.13	30
2402.05	32
2402.98	22
2403.9	28
2404.83	25
2405.75	24
2406.67	24
2407.6	26
2408.52	31
2409.44	24
2410.37	27
2411.29	27
2412.21	28
2413.13	30
2414.06	28
2414.98	31
2415.9	24
2416.82	26
2417.74	34
2418.67	25
2419.59	26
2420.51	28
2421.43	29
2422.35	30
2423.27	29
2424.19	24
2425.11	26
2426.03	26
2426.96	27
2427.88	28
2428.8	28
2429.72	28
2430.64	30
2431.56	22
2432.48	20
2433.39	24
2434.31	25
2435.23	24
2436.15	27
2437.07	22
2437.99	28
2438.91	28
2439.83	27
2440.75	31
2441.67	25
2442.58	29
2443.5	27
2444.42	22
2445.34	26
2446.26	30
2447.17	25
2448.09	28
2449.01	31
2449.92	29
2450.84	26
2451.76	24
2452.68	29
2453.59	26
2454.51	26
2455.42	30
2456.34	27
2457.26	30
2458.17	27
2459.09	23
2460	29
2460.92	24
2461.83	28
2462.75	30
2463.66	30
2464.58	30
2465.49	30
2466.41	24
2467.32	28
2468.24	24
2469.15	30
2470.07	26
2470.98	28
2471.89	22
2472.81	29
2473.72	29
2474.64	31
2475.55	26
2476.46	24
2477.37	26
2478.29	22
2479.2	26
2480.11	28
2481.03	29
2481.94	27
2482.85	27
2483.76	30
2484.67	28
2485.59	31
2486.5	23
2487.41	24
2488.32	28
2489.23	29
2490.14	27
2491.05	29
2491.97	29
2492.88	28
2493.79	27
2494.7	30
2495.61	29
2496.52	25
2497.43	30
2498.34	23
2499.25	28
2500.16	27
2501.07	30
2501.98	28
2502.89	27
2503.79	21
2504.7	28
2505.61	28
2506.52	24
2507.43	24
2508.34	28
2509.25	28
2510.16	26
2511.06	26
2511.97	26
2512.88	26
2513.79	28
2514.69	31
2515.6	28
2516.51	26
2517.42	25
2518.32	31
2519.23	22
2520.14	24
2521.04	27
2521.95	24
2522.86	30
2523.76	27
2524.67	28
2525.57	24
2526.48	29
2527.39	26
2528.29	28
2529.2	20
2530.1	26
2531.01	29
2531.91	25
2532.82	25
2533.72	26
2534.63	28
2535.53	24
2536.44	25
2537.34	33
2538.24	26
2539.15	28
2540.05	27
2540.96	26
2541.86	29
2542.76	30
2543.67	32
2544.57	23
2545.47	27
2546.37	29
2547.28	28
2548.18	25
2549.08	27
2549.99	26
2550.89	25
2551.79	31
2552.69	29
2553.59	28
2554.49	28
2555.4	22
2556.3	25
2557.2	29
2558.1	22
2559	28
2559.9	26
2560.8	26
2561.7	28
2562.6	28
2563.5	26
2564.4	29
2565.3	29
2566.2	30
2567.1	29
2568	28
2568.9	22
2569.8	22
2570.7	24
2571.6	28
2572.5	25
2573.4	28
2574.3	30
2575.2	27
2576.1	25
2576.99	27
2577.89	30
2578.79	28
2579.69	28
2580.59	31
2581.48	24
2582.38	31
2583.28	26
2584.18	24
2585.07	26
2585.97	30
2586.87	30
2587.76	25
2588.66	30
2589.56	26
2590.45	24
2591.35	22
2592.25	29
2593.14	33
2594.04	31
2594.93	26
2595.83	26
2596.73	26
2597.62	27
2598.52	32
2599.41	30
2600.31	26
2601.2	28
2602.1	29
2602.99	27
2603.88	26
2604.78	24
2605.67	29
2606.57	26
2607.46	26
2608.35	30
2609.25	22
2610.14	26
2611.03	21
2611.93	30
2612.82	25
2613.71	28
2614.61	27
2615.5	24
2616.39	28
2617.29	28
2618.18	28
2619.07	24
2619.96	26
2620.85	22
2621.75	27
2622.64	27
2623.53	25
2624.42	26
2625.31	29
2626.2	24
2627.09	28
2627.98	24
2628.88	26
2629.77	26
2630.66	20
2631.55	27
2632.44	26
2633.33	26
2634.22	31
2635.11	25
2636	33
2636.89	25
2637.78	28
2638.66	22
2639.55	28
2640.44	25
2641.33	29
2642.22	24
2643.11	24
2644	28
2644.89	24
2645.78	28
2646.66	25
2647.55	31
2648.44	28
2649.33	30
2650.21	29
2651.1	29
2651.99	27
2652.88	31
2653.76	29
2654.65	28
2655.54	32
2656.42	26
2657.31	31
2658.2	28
2659.08	26
2659.97	29
2660.86	30
2661.74	28
2662.63	29
2663.51	30
2664.4	26
2665.29	26
2666.17	24
2667.06	28
2667.94	24
2668.83	29
2669.71	28
2670.6	26
2671.48	26
2672.36	29
2673.25	26
2674.13	29
2675.02	25
2675.9	28
2676.78	24
2677.67	32
2678.55	32
2679.43	28
2680.32	26
2681.2	28
2682.08	24
2682.97	28
2683.85	28
2684.73	34
2685.61	32
2686.5	30
2687.38	25
2688.26	28
2689.14	27
2690.03	29
2690.91	27
2691.79	28
2692.67	28
2693.55	24
2694.43	24
2695.31	30
2696.19	29
2697.08	28
2697.96	26
2698.84	31
2699.72	26
2700.6	28
2701.48	26
2702.36	20
2703.24	28
2704.12	32
2705	28
2705.88	30
2706.76	28
2707.64	31
2708.51	30
2709.39	28
2710.27	32
2711.15	22
2712.03	24
2712.91	30
2713.79	28
2714.67	25
2715.54	28
2716.42	32
2717.3	28
2718.18	28
2719.05	34
2719.93	20
2720.81	28
2721.69	28
2722.56	22
2723.44	26
2724.32	28
2725.19	24
2726.07	26
2726.95	29
2727.82	25
2728.7	26
2729.58	24
2730.45	26
2731.33	28
2732.2	26
2733.08	26
2733.95	27
2734.83	27
2735.7	33
2736.58	25
2737.45	27
2738.33	29
2739.2	29
2740.08	24
2740.95	28
2741.83	30
2742.7	25
2743.58	28
2744.45	28
2745.32	24
2746.2	28
2747.07	29
2747.94	29
2748.82	26
2749.69	26
2750.56	26
2751.44	30
2752.31	28
2753.18	27
2754.05	30
2754.93	31
2755.8	28
2756.67	26
2757.54	31
2758.42	22
2759.29	32
2760.16	26
2761.03	27
2761.9	26
2762.77	26
2763.64	20
2764.51	25
2765.38	28
2766.26	30
2767.13	26
2768	26
2768.87	24
2769.74	24
2770.61	29
2771.48	26
2772.35	30
2773.22	27
2774.09	26
2774.96	24
2775.83	26
2776.7	26
2777.56	25
2778.43	29
2779.3	24
2780.17	25
2781.04	25
2781.91	27
2782.78	32
2783.64	31
2784.51	30
2785.38	22
2786.25	24
2787.12	30
2787.98	26
2788.85	28
2789.72	27
2790.59	24
2791.45	30
2792.32	28
2793.19	32
2794.05	30
2794.92	28
2795.79	29
2796.65	29
2797.52	26
2798.38	28
2799.25	20
2800.12	31
2800.98	32
2801.85	30
2802.71	25
2803.58	28
2804.44	29
2805.31	30
2806.17	30
2807.04	29
2807.9	28
2808.77	26
2809.63	24
2810.5	34
2811.36	26
2812.22	28
2813.09	28
2813.95	31
2814.82	29
2815.68	29
2816.54	27
2817.41	32
2818.27	24
2819.13	25
2820	27
2820.86	26
2821.72	35
2822.58	28
2823.45	28
2824.31	32
2825.17	32
2826.03	30
2826.9	26
2827.76	27
2828.62	29
2829.48	25
2830.34	29
2831.2	30
2832.06	31
2832.92	28
2833.79	32
2834.65	30
2835.51	28
2836.37	26
2837.23	33
2838.09	29
2838.95	20
2839.81	29
2840.67	28
2841.53	24
2842.39	30
2843.25	23
2844.11	26
2844.97	27
2845.83	26
2846.68	25
2847.54	31
2848.4	20
2849.26	32
2850.12	32
2850.98	28
2851.84	30
2852.69	25
2853.55	22
2854.41	26
2855.27	31
2856.13	28
2856.98	29
2857.84	27
2858.7	20
2859.56	32
2860.41	28
2861.27	30
2862.13	26
2862.98	30
2863.84	28
2864.7	28
2865.55	26
2866.41	30
2867.27	28
2868.12	32
2868.98	27
2869.83	32
2870.69	28
2871.54	28
2872.4	28
2873.25	35
2874.11	21
2874.96	28
2875.82	28
2876.68	31
2877.53	29
2878.38	30
2879.24	29
2880.09	30
2880.95	34
2881.8	35
2882.65	33
2883.51	24
2884.36	31
2885.22	30
2886.07	32
2886.92	34
2887.77	32
2888.63	34
2889.48	35
2890.33	35
2891.19	38
2892.04	30
2892.89	37
2893.74	40
2894.6	42
2895.45	40
2896.3	47
2897.15	47
2898	44
2898.85	46
2899.71	50
2900.56	56
2901.41	50
2902.26	50
2903.11	55
2903.96	55
2904.81	50
2905.66	56
2906.51	57
2907.36	56
2908.21	58
2909.06	52
2909.91	51
2910.76	54
2911.61	52
2912.46	47
2913.31	50
2914.16	44
2915.01	47
2915.86	42
2916.71	36
2917.56	40
2918.41	42
2919.26	33
2920.1	36
2920.95	35
2921.8	34
2922.65	34
2923.5	28
2924.34	38
2925.19	32
2926.04	34
2926.89	30
2927.74	31
2928.58	34
2929.43	30
2930.28	28
2931.12	28
2931.97	28
2932.82	30
2933.66	28
2934.51	26
2935.36	29
2936.2	26
2937.05	30
2937.89	29
2938.74	32
2939.59	29
2940.43	23
2941.28	28
2942.12	27
2942.97	30
2943.81	32
2944.66	30
2945.5	29
2946.35	30
2947.19	27
2948.04	28
2948.88	29
2949.72	33
2950.57	28
2951.41	32
2952.26	24
2953.1	30
2953.94	28
2954.79	34
2955.63	27
2956.47	34
2957.32	37
2958.16	35
2959	35
2959.85	38
2960.69	32
2961.53	34
2962.37	36
2963.22	37
2964.06	42
2964.9	36
2965.74	41
2966.58	43
2967.42	39
2968.27	47
2969.11	40
2969.95	40
2970.79	39
2971.63	36
2972.47	39
2973.31	40
2974.15	32
2974.99	32
2975.83	31
2976.68	37
2977.52	36
2978.36	30
2979.2	33
2980.04	32
2980.88	31
2981.71	30
2982.55	30
2983.39	32
2984.23	24
2985.07	28
2985.91	26
2986.75	30
2987.59	25
2988.43	26
2989.27	30
2990.1	28
2990.94	28
2991.78	30
2992.62	25
2993.46	22
2994.3	31
2995.13	26
2995.97	22
2996.81	24
2997.64	28
2998.48	31
2999.32	28
