#Acq. time (s)=	5
#Accumulations=	5
#Range (cm-¹)=	100...2000
#Windows=	2
#Autofocus=	Off
#AutoExposure=	Off
#Spike filter=	Multiple accum.
#Delay time (s)=	0
#Binning=	1
#Readout mode=	Signal
#DeNoise=	Off
#ICS correction=	Off
#Dark correction=	Off
#Inst. Process=	Off
#Instrument=	LabRAM HR Evol
#Detector=	Syncerity OE
#Objective=	x100_VIS_LWD
#Grating=	600 (500nm)
#ND Filter=	25%
#Laser=	633nm_Edge
#Hole=	100.021
#Range=	Visible
#Project=	bolus
#Sample=	A3
#Site=	r
#Title=	bolusa
#Remark=	
#Date=	18.06.2025 13:38
#Acquired=	18.06.2025 13:38:08
101.021	39.5
102.305	39.5
103.588	45.5
104.871	44.5
106.154	39
107.436	37.5
108.72	39
110.002	41
111.284	37
112.566	42.5
113.848	39
115.129	47
116.41	39
117.691	44.5
118.972	42
120.252	48
121.533	46
122.813	40
124.093	45.5
125.372	40.5
126.652	39
127.931	38
129.21	41
130.489	39
131.768	48.5
133.046	48
134.324	45.5
135.602	45.5
136.879	48
138.156	46
139.433	47
140.711	42
141.988	54.5
143.264	53.5
144.541	51
145.817	50
147.093	53
148.368	53
149.644	57.5
150.919	53
152.194	54.5
153.469	59.5
154.744	54
156.017	60.5
157.292	53
158.566	61
159.84	56
161.114	58
162.386	57.5
163.66	52
164.933	57.5
166.206	55
167.477	54
168.75	52.5
170.022	53.5
171.294	57
172.565	61.5
173.837	55
175.108	55.5
176.378	52.5
177.649	59
178.92	56
180.189	56
181.46	55
182.73	55
183.999	54
185.269	55
186.539	56
187.807	55.5
189.076	54
190.344	55
191.612	53
192.881	56.5
194.148	56
195.416	59.5
196.683	55.5
197.951	53
199.218	56
200.484	56
201.752	51.5
203.017	51.5
204.284	50.5
205.549	50.5
206.815	46.5
208.08	49.5
209.346	50.5
210.611	45.5
211.876	49.5
213.14	51
214.405	48
215.669	45.5
216.933	47
218.197	44
219.461	45
220.724	48
221.986	47
223.25	45.5
224.512	42
225.775	42.5
227.037	43
228.298	44.5
229.561	44
230.822	42.5
232.084	43
233.345	47.5
234.605	44
235.867	40
237.127	42
238.387	40.5
239.648	42.5
240.907	42
242.167	44.5
243.426	42
244.686	41
245.944	39.5
247.203	45
248.462	38.5
249.72	45
250.978	44.5
252.236	40
253.495	37.5
254.752	41.5
256.009	41
257.266	41
258.524	45.5
259.78	43.5
261.036	42.5
262.292	39
263.548	37.5
264.803	39
266.06	40.5
267.315	39
268.57	38
269.825	39.5
271.079	38.5
272.334	44
273.588	42
274.843	35.5
276.097	35
277.35	41.5
278.604	36.5
279.857	37.5
281.11	45.5
282.362	36.5
283.615	39.5
284.867	38.5
286.119	39
287.371	41
288.623	34.5
289.874	37
291.126	37
292.377	42.5
293.628	40.5
294.878	41.5
296.129	42
297.379	38.5
298.629	39
299.879	37
301.129	39.5
302.378	39.5
303.627	39
304.877	39
306.125	38
307.374	37.5
308.623	38
309.871	40.5
311.119	42.5
312.365	39.5
313.613	32.5
314.86	41.5
316.108	37.5
317.355	40.5
318.602	42
319.848	37
321.093	41
322.339	43
323.586	39
324.831	41
326.077	41
327.321	39
328.566	38
329.811	39
331.056	43
332.301	40.5
333.544	40.5
334.788	37.5
336.032	37
337.276	35.5
338.518	42
339.762	39
341.005	38.5
342.246	35.5
343.489	34.5
344.732	37
345.973	39.5
347.215	44
348.457	41.5
349.698	35
350.939	35
352.181	37.5
353.421	38
354.662	38
355.903	38
357.142	41.5
358.382	41
359.621	38.5
360.861	38.5
362.101	38
363.339	38.5
364.579	37
365.816	35.5
367.055	39
368.293	39
369.532	40.5
370.769	37
372.007	37.5
373.243	38.5
374.481	34
375.718	38
376.955	38.5
378.191	38
379.428	39
380.663	39
381.9	38.5
383.135	39.5
384.371	39.5
385.606	38
386.84	33.5
388.076	42
389.31	38
390.546	40
391.779	40
393.013	40.5
394.247	39
395.48	40.5
396.715	36
397.947	42
399.18	40.5
400.414	37.5
401.646	35
402.877	41.5
404.111	38
405.342	38
406.573	39
407.804	40.5
409.037	39
410.267	39
411.498	37.5
412.728	35
413.96	39.5
415.19	34
416.419	38
417.649	39
418.88	35.5
420.109	39
421.338	38.5
422.566	42
423.795	40
425.025	40.5
426.253	39
427.481	36
428.709	41.5
429.936	37.5
431.163	42.5
432.392	43.5
433.619	39
434.846	34.5
436.072	39.5
437.299	39.5
438.525	38.5
439.751	35
440.977	38
442.202	40
443.428	40
444.653	36.5
445.878	42
447.104	37.5
448.329	40.5
449.553	34
450.777	40
452.001	40.5
453.225	42.5
454.449	38.5
455.672	43.5
456.896	40
458.117	43.5
459.34	42.5
460.563	43
461.785	45.5
463.007	44
464.23	43.5
465.451	43.5
466.673	46
467.895	47
469.116	44
470.337	47
471.558	48.5
472.777	44
473.998	50
475.218	51
476.438	54
477.658	56.5
478.878	62
480.096	62.5
481.315	67.5
482.534	68.5
483.753	74.5
484.972	79
486.189	79.5
487.408	77.5
488.626	79.5
489.844	78.5
491.062	85
492.278	75
493.495	74
494.713	73
495.928	72
497.145	69
498.362	60.5
499.578	60
500.793	60
502.009	56.5
503.225	60.5
504.439	58.5
505.655	53.5
506.87	53
508.084	51.5
509.298	52.5
510.512	53
511.726	52.5
512.941	55.5
514.153	47.5
515.367	43
516.58	48.5
517.793	42.5
519.007	40
520.218	44
521.431	46
522.643	42
523.855	41.5
525.066	42.5
526.278	44
527.489	41.5
528.701	41.5
529.911	42
531.122	45
532.332	37
533.543	42
534.753	44
535.963	46
537.172	36
538.381	40.5
539.591	42
540.8	41
542.01	41
543.218	44
544.426	39
545.635	44
546.842	39.5
548.051	38
549.258	39
550.465	40
551.673	40
552.88	38.5
554.086	37
555.294	40.5
556.5	38.5
557.706	35.5
558.913	42
560.118	43.5
561.323	38
562.529	38.5
563.735	41.5
564.939	37.5
566.144	40
567.348	37.5
568.554	43
569.758	38
570.961	35.5
572.165	38.5
573.368	37.5
574.573	38.5
575.776	38.5
576.978	39.5
578.181	37
579.383	39.5
580.586	39
581.789	37.5
582.991	40
584.192	37
585.394	34
586.595	34
587.796	41
588.997	39.5
590.198	40.5
591.398	40
592.6	38.5
593.8	38.5
595	38
596.2	37
597.399	36.5
598.599	43.5
599.798	37
600.997	39.5
602.195	38.5
603.394	39.5
604.592	34.5
605.791	39.5
606.989	37
608.186	42.5
609.384	38
610.582	38.5
611.777	37
612.975	39.5
614.171	36
615.368	42
616.565	39
617.761	39.5
618.957	33
620.153	41
621.349	37.5
622.543	45.5
623.738	42.5
624.934	42.5
626.129	40
627.323	35
628.518	39
629.711	39.5
630.905	38.5
632.099	38.5
633.293	37
634.487	40
635.679	38
636.872	43
638.065	40
639.258	37.5
640.45	36.5
641.642	41
642.835	37.5
644.026	38
645.218	40
646.409	38.5
647.601	38.5
648.791	37.5
649.982	41
651.173	37.5
652.363	40.5
653.554	38
654.743	40
655.933	42
657.123	38
658.312	41.5
659.501	39
660.691	40
661.879	42.5
663.068	38.5
664.256	39
665.445	41
666.632	40
667.82	39
669.007	40
670.195	40.5
671.382	44.5
672.569	42
673.755	43
674.943	44.5
676.129	44
677.316	40.5
678.501	44
679.688	39
680.873	45.5
682.059	47
683.243	43
684.429	46
685.614	44
686.798	50.5
687.983	45
689.167	46
690.352	46.5
691.535	45.5
692.718	50.5
693.902	41
695.085	47
696.268	50
697.451	45
698.634	56
699.816	52
700.999	54
702.181	54
703.362	57.5
704.543	56.5
705.726	59.5
706.907	65
708.088	69
709.268	68.5
710.45	72
711.63	66.5
712.81	55.5
713.99	52
715.171	50
716.35	46.5
717.53	44
718.709	44
719.888	44
721.066	44
722.246	40
723.425	42.5
724.603	44.5
725.781	41.5
726.959	45.5
728.136	38
729.314	36
730.491	39
731.668	41.5
732.846	38.5
734.023	41
735.199	40
736.376	36.5
737.552	40
738.728	40
739.904	36
741.079	43
742.255	38.5
743.43	40
744.605	38
745.78	34
746.954	38
748.129	37
749.303	39
750.477	37
751.651	39.5
752.824	36
753.997	35
755.171	41
756.344	37.5
757.517	39
758.69	38
759.862	44.5
761.035	35.5
762.207	36
763.378	36
764.55	37
765.721	37
766.893	40.5
768.064	36.5
769.236	34.5
770.405	38
771.576	36
772.747	36
773.917	39.5
775.086	40
776.256	41.5
777.426	40.5
778.596	41.5
779.764	36.5
780.933	42
782.103	41
783.27	40.5
784.439	43
785.608	45.5
786.776	42
787.943	41
789.111	44.5
790.279	42
791.445	42.5
792.613	40
793.779	39
794.946	39.5
796.113	44
797.279	43
798.445	39.5
799.61	37.5
800.777	41.5
801.943	45.5
803.107	42.5
804.273	41
805.437	40.5
806.603	36
807.767	40
808.932	41
810.095	40
811.26	40.5
812.423	42.5
813.587	40
814.75	40.5
815.914	40
817.076	39.5
818.238	37.5
819.402	37.5
820.564	44.5
821.727	34.5
822.888	39
824.051	37
825.212	39.5
826.373	38.5
827.535	38
828.696	41
829.856	39.5
831.018	37.5
832.178	35
833.337	37
834.499	36
835.658	35
836.817	35
837.978	40
839.137	41.5
840.296	39.5
841.454	34
842.614	35.5
843.772	38
844.93	38.5
846.088	38.5
847.247	41
848.405	38
849.562	39
850.719	38.5
851.876	37.5
853.034	45
854.191	41.5
855.348	35
856.504	34
857.66	40
858.816	34.5
859.972	41.5
861.129	44
862.284	35.5
863.439	37.5
864.594	41.5
865.749	38.5
866.904	34.5
868.058	34.5
869.212	34
870.367	39.5
871.521	39.5
872.674	41
873.828	34
874.981	41.5
876.135	39
877.288	37.5
878.44	41.5
879.593	39
880.746	36.5
881.898	37
883.05	40
884.202	39
885.354	37.5
886.506	37
887.657	36.5
888.808	34.5
889.958	37.5
891.109	37
892.26	34
893.41	38.5
894.561	36.5
895.711	39.5
896.861	38.5
898.01	36.5
899.159	35.5
900.309	36
901.458	39
902.607	34.5
903.755	38
904.904	34
906.052	38
907.201	35
908.348	37
909.496	36.5
910.644	33
911.791	37
912.938	40
914.085	38
915.232	36
916.378	38
917.525	35.5
918.671	32
919.817	32.5
920.963	36.5
922.109	39
923.254	35.5
924.399	35.5
925.545	37
926.689	35.5
927.834	40.5
928.978	34
930.123	31
931.268	39.5
932.411	37
933.555	38
934.698	36.5
935.842	37.5
936.985	37
938.128	34.5
939.271	33
940.414	38.5
941.556	40
942.699	36.5
943.84	33
944.983	37.5
946.124	37.5
947.266	36.5
948.407	35
949.547	36
950.689	31
951.829	33.5
952.971	35
954.111	34
955.25	36
956.391	37.5
957.531	30.5
958.67	38
959.81	40
960.949	37.5
962.088	33.5
963.227	33
964.366	34
965.504	36.5
966.643	33.5
967.781	41
968.919	36
970.056	34.5
971.195	38.5
972.332	38.25
973.469	35
974.605	36.5
975.743	38.5
976.88	37.5
978.016	35
979.152	40
980.288	33
981.423	39.5
982.56	35
983.696	39.5
984.831	39
985.966	38.5
987.101	39
988.235	35
989.37	37
990.504	34
991.639	36
992.773	34.5
993.907	33
995.041	32
996.174	37
997.307	34
998.44	39
999.573	35
1000.71	37
1001.84	34
1002.97	35
1004.1	34
1005.24	38
1006.37	36.5
1007.5	35.5
1008.63	35
1009.76	37
1010.89	41
1012.02	38
1013.15	36
1014.28	32
1015.41	37.5
1016.54	35
1017.67	38.5
1018.8	34.5
1019.93	28.5
1021.06	34
1022.19	34.5
1023.32	34.5
1024.45	37
1025.58	35
1026.71	33
1027.84	36.5
1028.96	34.5
1030.09	38.5
1031.22	34
1032.35	34
1033.47	31
1034.6	35
1035.73	34
1036.86	36.5
1037.98	37
1039.11	37
1040.23	36
1041.36	35.5
1042.49	36
1043.61	38
1044.74	38.5
1045.86	34.5
1046.99	39
1048.11	33
1049.24	36
1050.36	39
1051.49	36
1052.61	37
1053.74	32.5
1054.86	38.5
1055.98	36.5
1057.11	31
1058.23	34
1059.35	32
1060.48	34
1061.6	33
1062.72	34.5
1063.85	38
1064.97	33
1066.09	35
1067.21	35
1068.33	33
1069.45	38
1070.57	32.5
1071.7	36
1072.82	36
1073.94	33.5
1075.06	33.5
1076.18	38.5
1077.3	33
1078.42	35
1079.54	33
1080.66	34.5
1081.78	34
1082.9	29.5
1084.02	38
1085.14	37
1086.26	35.5
1087.37	33.5
1088.49	34.5
1089.61	34
1090.73	38
1091.85	35
1092.96	37
1094.08	33.5
1095.2	35
1096.32	40
1097.43	38
1098.55	39
1099.67	34.5
1100.78	35
1101.9	40
1103.01	32.5
1104.13	36
1105.25	28.5
1106.36	34.5
1107.48	34.5
1108.59	34
1109.71	35
1110.82	32
1111.94	35.5
1113.05	33
1114.16	36.5
1115.28	33
1116.39	31
1117.51	33.5
1118.62	30
1119.73	34
1120.85	30.5
1121.96	33
1123.07	39
1124.18	34
1125.3	35
1126.41	34.5
1127.52	32.5
1128.63	31.5
1129.74	32
1130.86	36
1131.97	35.5
1133.08	35
1134.19	34
1135.3	34
1136.41	33
1137.52	34.5
1138.63	31
1139.74	29
1140.85	34
1141.96	33
1143.07	33.5
1144.18	37
1145.29	34
1146.4	34.5
1147.51	36
1148.62	37
1149.72	30.5
1150.83	28
1151.94	35.5
1153.05	31.5
1154.15	33.5
1155.26	37
1156.37	30.5
1157.48	37.5
1158.58	39
1159.69	31.5
1160.8	32.5
1161.9	33
1163.01	28.5
1164.12	32.5
1165.22	39
1166.33	38.5
1167.43	31.5
1168.54	34
1169.64	33.5
1170.75	36
1171.85	35.5
1172.96	35
1174.06	33
1175.17	34.5
1176.27	32
1177.37	33.5
1178.48	34
1179.58	36.5
1180.69	35
1181.79	33
1182.89	33.5
1183.99	35.5
1185.1	33
1186.2	34
1187.3	36.5
1188.4	29
1189.51	31
1190.61	32
1191.71	36
1192.81	33.5
1193.91	35
1195.01	34
1196.11	33
1197.22	33
1198.32	32.5
1199.42	33.99
1200.52	34.4279
1201.62	34.416
1202.72	31.5898
1203.82	30.1267
1204.91	31.1041
1206.02	31.1051
1207.11	29.6295
1208.21	35.9171
1209.31	33.8099
1210.41	29.9656
1211.51	31.6117
1212.61	33.1487
1213.7	32.3401
1214.8	33.1862
1215.9	33.5728
1217	33.8782
1218.09	35.3189
1219.19	33.0415
1220.29	32.5889
1221.39	34.4966
1222.48	32.4667
1223.58	33.1
1224.68	32.6825
1225.77	33.9918
1226.87	31.8336
1227.96	32.9059
1229.06	28.9738
1230.15	31.8902
1231.25	31.9811
1232.34	32.4616
1233.44	31.6534
1234.53	32.9183
1235.63	35.7117
1236.72	32.039
1237.82	31.906
1238.91	33.008
1240	33.4868
1241.1	33.6954
1242.19	33.3145
1243.28	35.9136
1244.38	33.5428
1245.47	33.5056
1246.56	34.2937
1247.66	31.3048
1248.75	34.9742
1249.84	32.5305
1250.93	32.5743
1252.02	35.8753
1253.12	33.1546
1254.21	32.0007
1255.3	32.0636
1256.39	37.6394
1257.48	34.9064
1258.57	34.5212
1259.66	33.7807
1260.75	36.0836
1261.84	34.5647
1262.93	34.2273
1264.02	31.785
1265.11	33.9875
1266.2	35.5183
1267.29	35.0533
1268.38	34.5064
1269.47	33.8245
1270.56	31.8685
1271.65	29.9518
1272.74	31.6616
1273.82	33.9203
1274.91	33.5786
1276	29.537
1277.09	29.856
1278.18	33.4967
1279.26	34.1625
1280.35	33.4108
1281.44	33.5182
1282.52	32.5466
1283.61	34.4245
1284.7	32.5826
1285.78	31.0644
1286.87	29.2723
1287.96	32.4022
1289.04	31.729
1290.13	32.5017
1291.21	29.3832
1292.3	30.7968
1293.38	33.3051
1294.47	31.0887
1295.55	33.606
1296.64	33.7201
1297.72	30.8949
1298.81	28.7381
1299.89	32.6259
1300.97	31.8674
1302.06	29.8054
1303.14	34.7964
1304.22	34.0391
1305.31	34.6111
1306.39	32.1681
1307.47	33.2665
1308.45	31
1309.54	33.5
1310.63	26
1311.72	35.5
1312.81	31
1313.89	32.5
1314.98	31.5
1316.07	31.5
1317.15	33
1318.24	33
1319.33	33
1320.41	30
1321.5	33
1322.59	31
1323.67	29
1324.76	34
1325.84	27.5
1326.93	35.5
1328.01	35.5
1329.1	31
1330.18	30
1331.27	33
1332.35	33.5
1333.44	31
1334.52	30.5
1335.6	33.5
1336.69	33
1337.77	29
1338.85	30.5
1339.94	35.5
1341.02	34.5
1342.1	30
1343.18	33.5
1344.27	31
1345.35	35.5
1346.43	31
1347.51	38
1348.6	28
1349.68	33.5
1350.76	33
1351.84	35
1352.92	32.5
1354	31
1355.08	28
1356.16	37
1357.24	30.5
1358.32	33
1359.4	33
1360.48	30
1361.56	28
1362.64	31
1363.72	34.5
1364.8	30.5
1365.88	32
1366.96	31.5
1368.04	32.5
1369.12	31
1370.19	30.5
1371.27	35
1372.35	29
1373.43	34.5
1374.51	32
1375.58	33
1376.66	34
1377.74	32
1378.82	29
1379.89	30
1380.97	34
1382.05	33
1383.12	35
1384.2	36.5
1385.27	29
1386.35	33
1387.43	31
1388.5	30.5
1389.58	35
1390.65	33.5
1391.73	36
1392.8	31
1393.87	36
1394.95	35.5
1396.02	35
1397.1	37
1398.17	34
1399.25	32.5
1400.32	40.5
1401.39	40
1402.47	39
1403.54	40.5
1404.61	41
1405.69	39.5
1406.76	38
1407.83	37
1408.9	37
1409.97	43.5
1411.05	40.5
1412.12	42
1413.19	36.5
1414.26	39.5
1415.33	38.5
1416.4	37.5
1417.47	35.5
1418.54	39
1419.61	43
1420.68	37
1421.76	33.5
1422.83	37
1423.89	36
1424.96	36
1426.03	34
1427.1	31.5
1428.17	31
1429.24	34
1430.31	31
1431.38	36.5
1432.45	34
1433.52	33
1434.58	28.5
1435.65	32.5
1436.72	32.5
1437.79	33
1438.85	32
1439.92	32
1440.99	34.5
1442.06	33.5
1443.12	32
1444.19	31
1445.26	31.5
1446.32	35.5
1447.39	28
1448.45	33
1449.52	31
1450.58	30
1451.65	37
1452.72	35
1453.78	33
1454.85	32.5
1455.91	32
1456.97	32
1458.04	32.5
1459.1	33.5
1460.17	36
1461.23	33.5
1462.3	34
1463.36	34.5
1464.42	33.5
1465.49	32.5
1466.55	35.5
1467.61	32.5
1468.67	37
1469.74	31
1470.8	36
1471.86	30
1472.92	35
1473.99	33
1475.05	35.5
1476.11	33
1477.17	32.5
1478.23	31
1479.29	34.5
1480.35	30
1481.41	30
1482.47	35
1483.54	31
1484.6	34.5
1485.66	36.5
1486.72	34.5
1487.78	33
1488.83	32
1489.89	31
1490.95	37
1492.01	31.5
1493.07	32.5
1494.13	32
1495.19	37
1496.25	33
1497.31	29
1498.36	30
1499.42	37
1500.48	34
1501.54	34
1502.59	30.5
1503.65	30
1504.71	35.5
1505.77	38.5
1506.82	31
1507.88	33
1508.93	30
1509.99	35
1511.05	31
1512.1	37
1513.16	33.5
1514.21	35.5
1515.27	36.5
1516.32	33
1517.38	29.5
1518.43	33.5
1519.49	35.5
1520.54	29.5
1521.6	33.5
1522.65	30
1523.71	35
1524.76	33.5
1525.81	30.5
1526.87	30.5
1527.92	29.5
1528.97	32.5
1530.03	33.5
1531.08	30
1532.13	31.5
1533.18	31.5
1534.24	34.5
1535.29	33.5
1536.34	39
1537.39	33
1538.45	33.5
1539.5	28.5
1540.55	33
1541.6	35
1542.65	33.5
1543.7	30
1544.75	32.5
1545.8	36
1546.85	34
1547.9	29.5
1548.95	30.5
1550	33
1551.05	33
1552.1	26
1553.15	37.5
1554.2	31
1555.25	36.5
1556.3	32.5
1557.35	32.5
1558.4	29
1559.45	29.5
1560.49	36
1561.54	30
1562.59	29.5
1563.64	32.5
1564.68	32
1565.73	32
1566.78	32
1567.83	36
1568.87	34
1569.92	33.5
1570.97	35
1572.01	32
1573.06	36
1574.11	32.5
1575.15	35
1576.2	34.5
1577.24	35
1578.29	32
1579.33	33.5
1580.38	26
1581.42	35
1582.47	33
1583.51	29
1584.56	33.5
1585.6	34
1586.65	31.5
1587.69	32.5
1588.73	35
1589.78	32.5
1590.82	32.5
1591.87	30
1592.91	31
1593.95	31
1594.99	31.5
1596.04	33.5
1597.08	32
1598.12	33
1599.16	32
1600.21	33.5
1601.25	32.5
1602.29	33
1603.33	34.5
1604.37	31.5
1605.41	31.5
1606.45	32
1607.5	34
1608.54	32
1609.58	34
1610.62	33.5
1611.66	30.5
1612.7	32.5
1613.74	33
1614.78	36
1615.82	31
1616.86	35
1617.89	32
1618.93	25
1619.97	31
1621.01	33.5
1622.05	34
1623.09	32.5
1624.13	33
1625.16	31.5
1626.2	31
1627.24	32
1628.28	35
1629.32	27
1630.35	29.5
1631.39	34.5
1632.43	29.5
1633.46	30
1634.5	29.5
1635.54	35
1636.57	27.5
1637.61	26
1638.65	32.5
1639.68	33.5
1640.72	29
1641.75	28.5
1642.79	34
1643.82	34
1644.86	31.5
1645.89	35
1646.93	35
1647.96	37.5
1649	29
1650.03	30
1651.07	33.5
1652.1	31.5
1653.13	33
1654.17	33.5
1655.2	32
1656.23	32
1657.27	31.5
1658.3	32
1659.33	33
1660.36	27.5
1661.4	37
1662.43	34
1663.46	29
1664.49	31.5
1665.53	32
1666.56	27.5
1667.59	28
1668.62	34.5
1669.65	32
1670.68	34
1671.71	34
1672.74	31
1673.77	31.5
1674.8	34.5
1675.83	33
1676.86	26
1677.89	31.5
1678.92	29
1679.95	32.5
1680.98	35
1682.01	34
1683.04	32
1684.07	32
1685.1	27
1686.13	26.5
1687.15	31.5
1688.18	34
1689.21	33
1690.24	30
1691.27	30
1692.29	32
1693.32	30
1694.35	29
1695.38	28.5
1696.4	29
1697.43	29.5
1698.46	33
1699.48	28.5
1700.51	31
1701.54	33
1702.56	33.5
1703.59	34
1704.61	31.5
1705.64	31
1706.66	30
1707.69	27.5
1708.71	28.5
1709.74	32
1710.76	30
1711.79	29
1712.81	31
1713.84	33
1714.86	32.5
1715.89	31
1716.91	31
1717.93	32
1718.96	33
1719.98	32.5
1721	29
1722.03	32.5
1723.05	29.5
1724.07	30
1725.09	36
1726.12	33
1727.14	27
1728.16	32
1729.18	30
1730.2	30.5
1731.23	33.5
1732.25	30
1733.27	34
1734.29	26
1735.31	29
1736.33	29.5
1737.35	33.5
1738.37	28
1739.39	31
1740.41	31.5
1741.43	34
1742.45	26.5
1743.47	30.5
1744.49	27
1745.51	30.5
1746.53	32
1747.55	31.5
1748.57	34
1749.59	32
1750.6	32.5
1751.62	28.5
1752.64	32.5
1753.66	31.5
1754.68	30
1755.69	29.5
1756.71	30.5
1757.73	34
1758.75	25
1759.76	30.5
1760.78	32
1761.8	33
1762.81	30
1763.83	26
1764.85	32
1765.86	30
1766.88	33
1767.89	33.5
1768.91	29.5
1769.93	30.5
1770.94	30.5
1771.96	31
1772.97	31
1773.99	28
1775	32
1776.02	28.5
1777.03	29
1778.04	28
1779.06	32
1780.07	29
1781.09	32
1782.1	30.5
1783.11	32.5
1784.13	27
1785.14	37
1786.15	28.5
1787.17	29.5
1788.18	30.5
1789.19	30.5
1790.2	26
1791.22	30
1792.23	30
1793.24	30
1794.25	29.5
1795.26	30
1796.27	32
1797.29	31
1798.3	32
1799.31	29.5
1800.32	29.5
1801.33	31.5
1802.34	28
1803.35	31
1804.36	32
1805.37	29.5
1806.38	30.5
1807.39	30.5
1808.4	28
1809.41	31
1810.42	29
1811.43	30
1812.44	31.5
1813.44	32.5
1814.45	30.5
1815.46	29
1816.47	34.5
1817.48	32
1818.49	32
1819.49	36
1820.5	32.5
1821.51	28
1822.52	30.5
1823.52	33.5
1824.53	27
1825.54	31
1826.54	32
1827.55	26.5
1828.56	32
1829.56	29.5
1830.57	30.5
1831.58	29.5
1832.58	31
1833.59	29
1834.59	29.5
1835.6	32
1836.6	30.5
1837.61	34
1838.61	33.5
1839.62	29.5
1840.62	30.5
1841.63	33
1842.63	31.5
1843.63	35
1844.64	25
1845.64	32
1846.65	29.5
1847.65	27.5
1848.65	28
1849.66	28
1850.66	32
1851.66	27.5
1852.66	28
1853.67	27.5
1854.67	33
1855.67	23
1856.67	34.5
1857.68	31.5
1858.68	29.5
1859.68	34
1860.68	28.5
1861.68	28.5
1862.68	28.5
1863.68	34
1864.68	30
1865.69	29.5
1866.69	29.5
1867.69	30.5
1868.69	27
1869.69	38
1870.69	31.5
1871.69	34
1872.69	27.5
1873.69	34
1874.69	32.5
1875.68	32.5
1876.68	25
1877.68	23
1878.68	28
1879.68	29.5
1880.68	31
1881.68	31.5
1882.67	29
1883.67	31
1884.67	30
1885.67	32
1886.66	29
1887.66	31.5
1888.66	28.5
1889.65	30
1890.65	29
1891.65	30.5
1892.65	34
1893.64	29.5
1894.64	30
1895.63	29
1896.63	31
1897.62	31.5
1898.62	27
1899.62	27.5
1900.61	31
1901.61	32
1902.6	29
1903.6	28.5
1904.59	28
1905.59	27
1906.58	26.5
1907.57	26
1908.57	31.5
1909.56	27
1910.56	29
1911.55	30
1912.54	27.5
1913.54	33.5
1914.53	29
1915.52	29
1916.51	30
1917.51	30
1918.5	31.5
1919.49	28.5
1920.48	31
1921.48	26
1922.47	28
1923.46	27.5
1924.45	28
1925.44	29.5
1926.43	30.5
1927.43	29
1928.42	30.5
1929.41	30
1930.4	28.5
1931.39	31.5
1932.38	29
1933.37	32
1934.36	30
1935.35	27
1936.34	24.5
1937.33	30.5
1938.32	27.5
1939.31	29.5
1940.3	27.5
1941.29	35.5
1942.28	27.5
1943.26	32.5
1944.25	27.5
1945.24	30
1946.23	29.5
1947.22	30
1948.2	29
1949.19	27
1950.18	33.5
1951.17	32.5
1952.15	32
1953.14	31.75
1954.13	30.5
1955.12	31.5
1956.1	26
1957.09	31
1958.08	29
1959.06	26.5
1960.05	31
1961.03	28
1962.02	33
1963.01	35.5
1963.99	26
1964.98	25.5
1965.96	26.5
1966.95	30
1967.93	30
1968.92	31
1969.9	29.5
1970.89	29.5
1971.87	30
1972.85	28
1973.84	30.5
1974.82	32
1975.81	27
1976.79	27.5
1977.77	31
1978.76	30
1979.74	32.5
1980.72	28.5
1981.7	32.5
1982.69	29
1983.67	32.5
1984.65	26
1985.63	29.5
1986.62	28.5
1987.6	30
1988.58	27
1989.56	25
1990.54	28.5
1991.52	29
1992.51	28.5
1993.49	29.5
1994.47	31.5
1995.45	27
1996.43	31
1997.41	28.5
1998.39	29.5
1999.37	28
