#Acq. time (s)=	5
#Accumulations=	5
#Range (cm-¹)=	100...2000
#Windows=	2
#Autofocus=	Off
#AutoExposure=	Off
#Spike filter=	Multiple accum.
#Delay time (s)=	0
#Binning=	1
#Readout mode=	Signal
#DeNoise=	Off
#ICS correction=	Off
#Dark correction=	Off
#Inst. Process=	Off
#Instrument=	LabRAM HR Evol
#Detector=	Syncerity OE
#Objective=	x100_VIS_LWD
#Grating=	600 (500nm)
#ND Filter=	25%
#Laser=	633nm_Edge
#Hole=	100.021
#Range=	Visible
#Project=	bolus
#Sample=	A3
#Site=	r
#Title=	bolusa
#Remark=	
#Date=	18.06.2025 13:39
#Acquired=	18.06.2025 13:39:52
101.021	40.5
102.305	43.5
103.588	41.5
104.871	45.5
106.154	39
107.436	41
108.72	42
110.002	39
111.284	42.5
112.566	39.5
113.848	40
115.129	38.5
116.41	41
117.691	43.5
118.972	44
120.252	41.5
121.533	39
122.813	42.5
124.093	42.5
125.372	45
126.652	43
127.931	43.5
129.21	41.5
130.489	45
131.768	45
133.046	47.5
134.324	49
135.602	47.5
136.879	47
138.156	51
139.433	51.5
140.711	49.5
141.988	50
143.264	49.5
144.541	52.5
145.817	53
147.093	58
148.368	47.5
149.644	55
150.919	57
152.194	53
153.469	51.5
154.744	55
156.017	54
157.292	54
158.566	53.5
159.84	55.5
161.114	58.5
162.386	60.5
163.66	48.5
164.933	50
166.206	51
167.477	53
168.75	52
170.022	55
171.294	53.5
172.565	53.5
173.837	54.5
175.108	54
176.378	51
177.649	57
178.92	52
180.189	58
181.46	60
182.73	55
183.999	58
185.269	51
186.539	54.5
187.807	54
189.076	54.5
190.344	59.5
191.612	53.5
192.881	50.5
194.148	55
195.416	58
196.683	54
197.951	53
199.218	52
200.484	48.5
201.752	49.5
203.017	51.5
204.284	53.5
205.549	47
206.815	47
208.08	49.5
209.346	47
210.611	46
211.876	48.5
213.14	48.5
214.405	49
215.669	45
216.933	45
218.197	47.5
219.461	49.5
220.724	45.5
221.986	44.5
223.25	45.5
224.512	47
225.775	46
227.037	49
228.298	50
229.561	42
230.822	44.5
232.084	49
233.345	43
234.605	41
235.867	42.5
237.127	42
238.387	41
239.648	41
240.907	43.5
242.167	43
243.426	40.5
244.686	42
245.944	42
247.203	45
248.462	44
249.72	43
250.978	42.5
252.236	42.5
253.495	44
254.752	43
256.009	39
257.266	42
258.524	45
259.78	37.5
261.036	41.5
262.292	40.5
263.548	41.5
264.803	45
266.06	40
267.315	40
268.57	42
269.825	38
271.079	39
272.334	42
273.588	43
274.843	38
276.097	36.5
277.35	38
278.604	38.5
279.857	41
281.11	37
282.362	41.5
283.615	40.5
284.867	40
286.119	37.5
287.371	36.5
288.623	39.5
289.874	37
291.126	35.5
292.377	43
293.628	40.5
294.878	35
296.129	36
297.379	42.5
298.629	38
299.879	36
301.129	41.5
302.378	35
303.627	34
304.877	43
306.125	39.5
307.374	39
308.623	41.5
309.871	34.5
311.119	37.5
312.365	40.5
313.613	37
314.86	38.5
316.108	42
317.355	37
318.602	40.5
319.848	38.5
321.093	34.5
322.339	41.5
323.586	37
324.831	43.5
326.077	42.5
327.321	41
328.566	43
329.811	39
331.056	40
332.301	38
333.544	34
334.788	41
336.032	39.5
337.276	43.5
338.518	36.5
339.762	41
341.005	37
342.246	42.5
343.489	39
344.732	39
345.973	39
347.215	40.5
348.457	35
349.698	43.5
350.939	41.5
352.181	39.5
353.421	39.5
354.662	38
355.903	41.5
357.142	40
358.382	41
359.621	38
360.861	41
362.101	37
363.339	44
364.579	44
365.816	37
367.055	38
368.293	39.5
369.532	36
370.769	35
372.007	39.5
373.243	46
374.481	36
375.718	40
376.955	39.5
378.191	39
379.428	41.5
380.663	39.5
381.9	43
383.135	39.5
384.371	36
385.606	41
386.84	46
388.076	39
389.31	34
390.546	40.5
391.779	41
393.013	39
394.247	35.5
395.48	45
396.715	40
397.947	40
399.18	38.5
400.414	42.5
401.646	40.5
402.877	37.5
404.111	38.5
405.342	39.5
406.573	36.5
407.804	43
409.037	40
410.267	40.5
411.498	40
412.728	37.5
413.96	37
415.19	43
416.419	41
417.649	42.5
418.88	41.5
420.109	40
421.338	35
422.566	36.5
423.795	35.5
425.025	42
426.253	42.5
427.481	39.5
428.709	41.5
429.936	41.5
431.163	41
432.392	41
433.619	39.5
434.846	41.5
436.072	38.5
437.299	40.5
438.525	42.5
439.751	34
440.977	38
442.202	37.5
443.428	40
444.653	36.5
445.878	43.5
447.104	41.5
448.329	38
449.553	40
450.777	43
452.001	38
453.225	39
454.449	40.5
455.672	37
456.896	42.5
458.117	40
459.34	39
460.563	39
461.785	40
463.007	40.5
464.23	38
465.451	42
466.673	40
467.895	48.5
469.116	43
470.337	46.5
471.558	47
472.777	52
473.998	47.5
475.218	50
476.438	58
477.658	55
478.878	58.5
480.096	63
481.315	66
482.534	65.5
483.753	72.5
484.972	78.5
486.189	76
487.408	79
488.626	78.5
489.844	71
491.062	78.5
492.278	79
493.495	70.5
494.713	67
495.928	60
497.145	67
498.362	66.5
499.578	62
500.793	60
502.009	58.5
503.225	58
504.439	51
505.655	56
506.87	51.5
508.084	53
509.298	48
510.512	46.5
511.726	47.5
512.941	42
514.153	46
515.367	50
516.58	38.5
517.793	43
519.007	40
520.218	44
521.431	42
522.643	45.5
523.855	46
525.066	43
526.278	42
527.489	39.5
528.701	40
529.911	40
531.122	39.5
532.332	45
533.543	42
534.753	42.5
535.963	41.5
537.172	42
538.381	38.5
539.591	41.5
540.8	38
542.01	40
543.218	37.5
544.426	37.5
545.635	38
546.842	43
548.051	46
549.258	40.5
550.465	38
551.673	42
552.88	35
554.086	39.5
555.294	40
556.5	39
557.706	38
558.913	43.5
560.118	40
561.323	40
562.529	41
563.735	34
564.939	41.5
566.144	36
567.348	43.5
568.554	38
569.758	40.5
570.961	40
572.165	42
573.368	43.5
574.573	39.5
575.776	41.5
576.978	36
578.181	39
579.383	37.5
580.586	38
581.789	43
582.991	38.5
584.192	38.5
585.394	38.5
586.595	37.5
587.796	36.5
588.997	40.5
590.198	41.5
591.398	32
592.6	38.5
593.8	43
595	39
596.2	36.5
597.399	41
598.599	38.5
599.798	36
600.997	37
602.195	43
603.394	38
604.592	40
605.791	39.5
606.989	36.5
608.186	39
609.384	38
610.582	40
611.777	44
612.975	35
614.171	44
615.368	41.5
616.565	39
617.761	39
618.957	41.5
620.153	37.5
621.349	39
622.543	40
623.738	40.5
624.934	43
626.129	39.5
627.323	41
628.518	36
629.711	41
630.905	38.5
632.099	39
633.293	38
634.487	41
635.679	38.5
636.872	38
638.065	37.5
639.258	45
640.45	37
641.642	41
642.835	38
644.026	40.5
645.218	46.5
646.409	42
647.601	40.5
648.791	39
649.982	39
651.173	37.5
652.363	36
653.554	40
654.743	39
655.933	43
657.123	41
658.312	42.5
659.501	41
660.691	41
661.879	38
663.068	38.5
664.256	43
665.445	43.5
666.632	38.5
667.82	38
669.007	43.5
670.195	43
671.382	39
672.569	40
673.755	40.5
674.943	42
676.129	39
677.316	45
678.501	45.5
679.688	46.5
680.873	49
682.059	47
683.243	48.5
684.429	49
685.614	48
686.798	49.5
687.983	47.5
689.167	46
690.352	49
691.535	49
692.718	42
693.902	47
695.085	47.5
696.268	48
697.451	48
698.634	49
699.816	49
700.999	49.5
702.181	48
703.362	49
704.543	58
705.726	58
706.907	67.5
708.088	73
709.268	68.5
710.45	67.5
711.63	64
712.81	54.5
713.99	54.5
715.171	46.5
716.35	46
717.53	49
718.709	39
719.888	40.5
721.066	43.5
722.246	44
723.425	44.5
724.603	43
725.781	35
726.959	41
728.136	41.5
729.314	43
730.491	39
731.668	41.5
732.846	38.5
734.023	40.5
735.199	36
736.376	39
737.552	37
738.728	43
739.904	41.5
741.079	39
742.255	36
743.43	37.5
744.605	37.5
745.78	37
746.954	37.5
748.129	41
749.303	39.5
750.477	36
751.651	40
752.824	40
753.997	33.5
755.171	39.5
756.344	37
757.517	38.5
758.69	44
759.862	42.5
761.035	35.5
762.207	39
763.378	36.5
764.55	41
765.721	37
766.893	35
768.064	37.5
769.236	36
770.405	38
771.576	37.5
772.747	41.5
773.917	38
775.086	41.5
776.256	36
777.426	39.5
778.596	39
779.764	39
780.933	47
782.103	40
783.27	43
784.439	39.5
785.608	37.5
786.776	45.5
787.943	42
789.111	41.5
790.279	41.5
791.445	42.5
792.613	42
793.779	36
794.946	40.5
796.113	46
797.279	40
798.445	38
799.61	39
800.777	39
801.943	42.5
803.107	38.5
804.273	39.5
805.437	40
806.603	42
807.767	37
808.932	39.5
810.095	39
811.26	37
812.423	39
813.587	38
814.75	39
815.914	39.5
817.076	38
818.238	39
819.402	39
820.564	43
821.727	35
822.888	40
824.051	39
825.212	39
826.373	39
827.535	38.5
828.696	36.5
829.856	40
831.018	39.5
832.178	38.5
833.337	38
834.499	37
835.658	40.5
836.817	39
837.978	36.5
839.137	33.5
840.296	41
841.454	41
842.614	42.5
843.772	41
844.93	37
846.088	43
847.247	36
848.405	34.5
849.562	37.5
850.719	40.5
851.876	35
853.034	41
854.191	39.5
855.348	40.5
856.504	42.5
857.66	38
858.816	40
859.972	42
861.129	43
862.284	43
863.439	40
864.594	39
865.749	37
866.904	39
868.058	37
869.212	38
870.367	38.5
871.521	37
872.674	34
873.828	39.5
874.981	38
876.135	42
877.288	35
878.44	36.5
879.593	46.5
880.746	37
881.898	38
883.05	41
884.202	42
885.354	35
886.506	39.5
887.657	39.5
888.808	41.5
889.958	37.5
891.109	36
892.26	39.5
893.41	35.5
894.561	37.5
895.711	34.5
896.861	39
898.01	37.5
899.159	38.5
900.309	39.5
901.458	39.5
902.607	37
903.755	36
904.904	36
906.052	37.5
907.201	37.5
908.348	37
909.496	36.5
910.644	37
911.791	33.5
912.938	34.5
914.085	35.5
915.232	35
916.378	39.5
917.525	34.5
918.671	35
919.817	38
920.963	38.5
922.109	36
923.254	37
924.399	38
925.545	38
926.689	37.5
927.834	41.5
928.978	37
930.123	34
931.268	36
932.411	36.5
933.555	37
934.698	33.5
935.842	41
936.985	37.5
938.128	38
939.271	36.5
940.414	33
941.556	42
942.699	36
943.84	37.5
944.983	35
946.124	38
947.266	38
948.407	38
949.547	34
950.689	35
951.829	38
952.971	37
954.111	35
955.25	37
956.391	35
957.531	34
958.67	42
959.81	35
960.949	35
962.088	39
963.227	34.5
964.366	37
965.504	34
966.643	39
967.781	35.5
968.919	37.5
970.056	38
971.195	39.5
972.332	39.5
973.469	39.5
974.605	35
975.743	33.5
976.88	36
978.016	34
979.152	37
980.288	37
981.423	38
982.56	37
983.696	37
984.831	33
985.966	32
987.101	36.5
988.235	35
989.37	36
990.504	31.5
991.639	40
992.773	38.5
993.907	40
995.041	35
996.174	40.5
997.307	36
998.44	38.5
999.573	33.5
1000.71	39
1001.84	34
1002.97	38.5
1004.1	38
1005.24	36
1006.37	33
1007.5	34
1008.63	36.5
1009.76	37.5
1010.89	35.5
1012.02	36.5
1013.15	32.5
1014.28	35.5
1015.41	37
1016.54	38
1017.67	34
1018.8	35
1019.93	35
1021.06	30
1022.19	35
1023.32	34
1024.45	31
1025.58	40
1026.71	33.5
1027.84	31
1028.96	33.5
1030.09	36
1031.22	32
1032.35	37.5
1033.47	39
1034.6	35
1035.73	35
1036.86	41.5
1037.98	37
1039.11	36
1040.23	41
1041.36	36
1042.49	37
1043.61	32.5
1044.74	40.5
1045.86	31
1046.99	39
1048.11	34.5
1049.24	38.5
1050.36	36
1051.49	37.5
1052.61	40
1053.74	33
1054.86	35.5
1055.98	34.5
1057.11	33.5
1058.23	39
1059.35	39
1060.48	36
1061.6	37
1062.72	40.5
1063.85	35
1064.97	37
1066.09	35.5
1067.21	37.5
1068.33	36
1069.45	34
1070.57	38
1071.7	35
1072.82	40
1073.94	34.5
1075.06	35.5
1076.18	35.5
1077.3	36
1078.42	41.5
1079.54	33.5
1080.66	30.5
1081.78	36.5
1082.9	37.5
1084.02	34
1085.14	36
1086.26	36
1087.37	38
1088.49	38.5
1089.61	31.5
1090.73	33
1091.85	34.5
1092.96	35.5
1094.08	34
1095.2	34.5
1096.32	35.5
1097.43	35
1098.55	32
1099.67	36
1100.78	34.5
1101.9	35.5
1103.01	34
1104.13	34
1105.25	35
1106.36	36
1107.48	32
1108.59	35
1109.71	37
1110.82	38.5
1111.94	33
1113.05	32.5
1114.16	34.5
1115.28	38.5
1116.39	34
1117.51	35.5
1118.62	33
1119.73	31.5
1120.85	38.5
1121.96	34.5
1123.07	35
1124.18	33
1125.3	32
1126.41	30.5
1127.52	35.5
1128.63	37
1129.74	35.5
1130.86	36.5
1131.97	33
1133.08	33
1134.19	35.5
1135.3	33.5
1136.41	33
1137.52	34
1138.63	35.5
1139.74	33
1140.85	35
1141.96	34.5
1143.07	31
1144.18	34
1145.29	35.5
1146.4	32
1147.51	36.5
1148.62	31
1149.72	37
1150.83	34
1151.94	36.5
1153.05	35
1154.15	37
1155.26	34
1156.37	34.5
1157.48	34
1158.58	32
1159.69	37.5
1160.8	34
1161.9	32.5
1163.01	37.5
1164.12	34
1165.22	34.5
1166.33	38
1167.43	36.5
1168.54	34
1169.64	34.5
1170.75	38
1171.85	31.5
1172.96	33.5
1174.06	34
1175.17	35
1176.27	34
1177.37	32
1178.48	35.5
1179.58	37
1180.69	33
1181.79	38
1182.89	31.5
1183.99	32.5
1185.1	35
1186.2	35.5
1187.3	38.5
1188.4	30.5
1189.51	33
1190.61	34
1191.71	34.5
1192.81	34.5
1193.91	34.5
1195.01	32
1196.11	32
1197.22	35.5
1198.32	33.5
1199.42	32.5025
1200.52	36.3913
1201.62	31.991
1202.72	30.1627
1203.82	31.1224
1204.91	34.0491
1206.02	32.5478
1207.11	32.8911
1208.21	31.2004
1209.31	34.7735
1210.41	35.9785
1211.51	34.503
1212.61	32.4853
1213.7	33.0249
1214.8	32.6708
1215.9	31.7295
1217	33.3808
1218.09	31.7376
1219.19	28.1933
1220.29	34.1539
1221.39	31.1176
1222.48	33.4416
1223.58	32.5159
1224.68	32.9125
1225.77	32.8079
1226.87	31.2944
1227.96	36.2883
1229.06	32.8265
1230.15	33.9237
1231.25	31.8909
1232.34	35.1427
1233.44	33.3445
1234.53	35.5942
1235.63	35.0425
1236.72	33.8069
1237.82	32.7831
1238.91	36.14
1240	34.0066
1241.1	34.3877
1242.19	30.8973
1243.28	33.9029
1244.38	33.1789
1245.47	35.322
1246.56	32.9178
1247.66	33.5704
1248.75	33.759
1249.84	30.798
1250.93	34.071
1252.02	32.5668
1253.12	33.8154
1254.21	34.6623
1255.3	34.8271
1256.39	33.5481
1257.48	37.0973
1258.57	35.6562
1259.66	33.6177
1260.75	35.5147
1261.84	33.7457
1262.93	39.067
1264.02	36.9013
1265.11	36.6716
1266.2	34.6016
1267.29	34.9698
1268.38	31.6152
1269.47	35.7365
1270.56	34.9885
1271.65	31.6043
1272.74	33.9156
1273.82	33.3463
1274.91	32.4806
1276	32.5325
1277.09	32.9518
1278.18	32.0875
1279.26	33.5376
1280.35	32.493
1281.44	32.4744
1282.52	31.486
1283.61	33.2778
1284.7	30.7174
1285.78	31.8987
1286.87	31.4618
1287.96	32.1355
1289.04	34.4327
1290.13	32.5412
1291.21	30.465
1292.3	30.4313
1293.38	31.7035
1294.47	29.6149
1295.55	32.5588
1296.64	33.9968
1297.72	32.3325
1298.81	31.7269
1299.89	29.9712
1300.97	31.8426
1302.06	32.8046
1303.14	32.4646
1304.22	31.5548
1305.31	33.8509
1306.39	31.6321
1307.47	32.6199
1308.45	33.5
1309.54	29.5
1310.63	30
1311.72	35.5
1312.81	31.5
1313.89	32.5
1314.98	29.5
1316.07	32.5
1317.15	32.5
1318.24	33.5
1319.33	32.5
1320.41	33
1321.5	32.5
1322.59	29
1323.67	35
1324.76	32
1325.84	31.5
1326.93	29
1328.01	33
1329.1	32
1330.18	29.5
1331.27	29.5
1332.35	29
1333.44	30.5
1334.52	30
1335.6	33
1336.69	29.5
1337.77	31.5
1338.85	31.5
1339.94	31.5
1341.02	31.5
1342.1	33
1343.18	33.5
1344.27	33
1345.35	33
1346.43	33.5
1347.51	34.5
1348.6	32
1349.68	37
1350.76	33
1351.84	34
1352.92	35
1354	32.5
1355.08	31.5
1356.16	32.5
1357.24	32
1358.32	32.5
1359.4	33
1360.48	34
1361.56	34
1362.64	33
1363.72	31
1364.8	31.5
1365.88	34.5
1366.96	34.5
1368.04	36.5
1369.12	31
1370.19	31.5
1371.27	33.5
1372.35	33.5
1373.43	32
1374.51	35
1375.58	33
1376.66	32.5
1377.74	35
1378.82	30
1379.89	32.5
1380.97	34
1382.05	38
1383.12	36.5
1384.2	35
1385.27	37.5
1386.35	33.5
1387.43	34
1388.5	37
1389.58	32
1390.65	35.5
1391.73	34
1392.8	37
1393.87	32
1394.95	38
1396.02	37.5
1397.1	35
1398.17	36
1399.25	38
1400.32	40.5
1401.39	40.5
1402.47	36.5
1403.54	39.5
1404.61	41
1405.69	40.5
1406.76	36
1407.83	31
1408.9	37
1409.97	37
1411.05	41
1412.12	41
1413.19	43
1414.26	41
1415.33	38.5
1416.4	31
1417.47	40
1418.54	38.5
1419.61	39.5
1420.68	42
1421.76	30.5
1422.83	34
1423.89	35
1424.96	36.5
1426.03	33
1427.1	28.5
1428.17	34
1429.24	34
1430.31	33.5
1431.38	37
1432.45	36
1433.52	36
1434.58	40.5
1435.65	35
1436.72	32
1437.79	34
1438.85	36.5
1439.92	33.5
1440.99	38
1442.06	30.5
1443.12	33.5
1444.19	38.5
1445.26	34
1446.32	36.5
1447.39	34
1448.45	35.5
1449.52	31.5
1450.58	33.5
1451.65	35.5
1452.72	36.5
1453.78	32.5
1454.85	34.5
1455.91	32
1456.97	33
1458.04	29
1459.1	34.5
1460.17	35
1461.23	31
1462.3	35.5
1463.36	30
1464.42	35.5
1465.49	33
1466.55	32
1467.61	34
1468.67	33.5
1469.74	33
1470.8	31
1471.86	34
1472.92	31
1473.99	33
1475.05	32.5
1476.11	32
1477.17	31
1478.23	34.5
1479.29	31.5
1480.35	32
1481.41	32
1482.47	30.5
1483.54	30
1484.6	33
1485.66	36.5
1486.72	31.5
1487.78	36
1488.83	37
1489.89	36.5
1490.95	31.5
1492.01	35.5
1493.07	32
1494.13	35
1495.19	35
1496.25	36
1497.31	33.5
1498.36	32.5
1499.42	33
1500.48	33.5
1501.54	34.5
1502.59	35.5
1503.65	32
1504.71	35
1505.77	33.5
1506.82	35
1507.88	33.5
1508.93	36
1509.99	32
1511.05	33.5
1512.1	33.5
1513.16	32
1514.21	35
1515.27	35.5
1516.32	31
1517.38	30
1518.43	30.5
1519.49	30.5
1520.54	31
1521.6	31.5
1522.65	31.5
1523.71	33.5
1524.76	32.5
1525.81	36.5
1526.87	36
1527.92	31.5
1528.97	33.5
1530.03	34
1531.08	34
1532.13	32
1533.18	35
1534.24	33.5
1535.29	32.5
1536.34	39
1537.39	30.5
1538.45	34
1539.5	32.5
1540.55	32.5
1541.6	37
1542.65	28.5
1543.7	33
1544.75	33.5
1545.8	32.5
1546.85	38
1547.9	34
1548.95	30
1550	32.5
1551.05	34
1552.1	33
1553.15	32.5
1554.2	32
1555.25	31.5
1556.3	29.5
1557.35	34.5
1558.4	33
1559.45	33
1560.49	33
1561.54	32
1562.59	34
1563.64	29.5
1564.68	33
1565.73	30.5
1566.78	33
1567.83	34
1568.87	27.5
1569.92	27
1570.97	33
1572.01	29.5
1573.06	34
1574.11	33
1575.15	33
1576.2	32
1577.24	32.5
1578.29	28.5
1579.33	30.5
1580.38	29
1581.42	33
1582.47	35.5
1583.51	31
1584.56	33
1585.6	32
1586.65	32
1587.69	34
1588.73	32.5
1589.78	35
1590.82	32
1591.87	33
1592.91	32
1593.95	29.5
1594.99	30
1596.04	32.5
1597.08	34
1598.12	35.5
1599.16	32
1600.21	35
1601.25	29
1602.29	27
1603.33	32.5
1604.37	34
1605.41	32
1606.45	33
1607.5	31
1608.54	32
1609.58	27
1610.62	29.5
1611.66	34.5
1612.7	31
1613.74	32
1614.78	33
1615.82	34
1616.86	31.5
1617.89	34.5
1618.93	30
1619.97	29.5
1621.01	31
1622.05	29.5
1623.09	34
1624.13	27.5
1625.16	35
1626.2	30
1627.24	32.5
1628.28	31.5
1629.32	28
1630.35	31.5
1631.39	33.5
1632.43	26.5
1633.46	34
1634.5	34
1635.54	36
1636.57	30.5
1637.61	34
1638.65	33
1639.68	33.5
1640.72	30.5
1641.75	35.5
1642.79	29.5
1643.82	34.5
1644.86	30
1645.89	29.5
1646.93	29
1647.96	34
1649	27
1650.03	32
1651.07	32
1652.1	35.5
1653.13	29.5
1654.17	30.5
1655.2	35.5
1656.23	30.5
1657.27	28.5
1658.3	32
1659.33	31.5
1660.36	34.5
1661.4	31
1662.43	31
1663.46	35
1664.49	33
1665.53	35
1666.56	34.5
1667.59	30
1668.62	29.5
1669.65	33.5
1670.68	33.5
1671.71	29.5
1672.74	30
1673.77	28.5
1674.8	30
1675.83	34
1676.86	31
1677.89	32
1678.92	33
1679.95	32.5
1680.98	29.5
1682.01	28
1683.04	33
1684.07	31
1685.1	34
1686.13	33.5
1687.15	34.5
1688.18	31
1689.21	32.5
1690.24	31
1691.27	34
1692.29	32
1693.32	32
1694.35	32
1695.38	33
1696.4	32.5
1697.43	33.5
1698.46	30.5
1699.48	30
1700.51	30.5
1701.54	29
1702.56	32
1703.59	26
1704.61	33.5
1705.64	32.5
1706.66	34
1707.69	33
1708.71	30
1709.74	32.5
1710.76	33.5
1711.79	35
1712.81	31.5
1713.84	33
1714.86	33
1715.89	33
1716.91	32.5
1717.93	31
1718.96	32.5
1719.98	32.5
1721	34
1722.03	31
1723.05	32
1724.07	28.5
1725.09	33.5
1726.12	33.5
1727.14	31
1728.16	33
1729.18	34.5
1730.2	36
1731.23	35.5
1732.25	28
1733.27	36
1734.29	29.5
1735.31	34
1736.33	30
1737.35	33
1738.37	32
1739.39	31.5
1740.41	32
1741.43	32
1742.45	33.5
1743.47	32
1744.49	34
1745.51	31.5
1746.53	32.5
1747.55	28
1748.57	34
1749.59	28.5
1750.6	31
1751.62	32
1752.64	34
1753.66	34.5
1754.68	28.5
1755.69	32
1756.71	34
1757.73	33
1758.75	34.5
1759.76	34
1760.78	34
1761.8	29.5
1762.81	35
1763.83	33
1764.85	33
1765.86	31
1766.88	32.5
1767.89	30
1768.91	34.5
1769.93	29
1770.94	29.5
1771.96	30
1772.97	30
1773.99	34
1775	31.5
1776.02	30
1777.03	29.5
1778.04	32
1779.06	33
1780.07	31
1781.09	33
1782.1	32.5
1783.11	33
1784.13	34
1785.14	29.5
1786.15	33
1787.17	33
1788.18	33.5
1789.19	32
1790.2	29
1791.22	31.5
1792.23	34.5
1793.24	27.5
1794.25	34
1795.26	31.5
1796.27	31
1797.29	31.5
1798.3	31
1799.31	31.5
1800.32	29.5
1801.33	31
1802.34	34.5
1803.35	29
1804.36	32
1805.37	28.5
1806.38	34.5
1807.39	35
1808.4	32.5
1809.41	33.5
1810.42	30.5
1811.43	30.5
1812.44	31
1813.44	25
1814.45	31
1815.46	31.5
1816.47	37.5
1817.48	30
1818.49	34
1819.49	31.5
1820.5	30.5
1821.51	35.5
1822.52	31.5
1823.52	33
1824.53	31
1825.54	30.5
1826.54	33.5
1827.55	29
1828.56	28
1829.56	31.5
1830.57	32
1831.58	29
1832.58	30
1833.59	29
1834.59	34
1835.6	31
1836.6	32.5
1837.61	29.5
1838.61	29.5
1839.62	28
1840.62	28
1841.63	31.5
1842.63	29
1843.63	30.5
1844.64	28
1845.64	29
1846.65	31
1847.65	30.5
1848.65	32.5
1849.66	30
1850.66	32.5
1851.66	31
1852.66	31.5
1853.67	28.5
1854.67	28
1855.67	30
1856.67	32
1857.68	32.5
1858.68	32
1859.68	32
1860.68	28
1861.68	27
1862.68	33
1863.68	29
1864.68	30
1865.69	27
1866.69	30
1867.69	28.5
1868.69	32
1869.69	31
1870.69	31
1871.69	28.5
1872.69	29.5
1873.69	31
1874.69	29.5
1875.68	35
1876.68	30.5
1877.68	32
1878.68	28
1879.68	30
1880.68	29.5
1881.68	30
1882.67	27.5
1883.67	31
1884.67	31.5
1885.67	31
1886.66	30
1887.66	33
1888.66	30
1889.65	32
1890.65	30.5
1891.65	33.5
1892.65	27
1893.64	29
1894.64	25.5
1895.63	32
1896.63	30
1897.62	23.5
1898.62	29.5
1899.62	30.5
1900.61	30.5
1901.61	30.5
1902.6	29.5
1903.6	30.5
1904.59	30
1905.59	29.5
1906.58	29
1907.57	29.5
1908.57	27
1909.56	31.5
1910.56	31
1911.55	28.5
1912.54	30
1913.54	29.5
1914.53	31
1915.52	32
1916.51	30.5
1917.51	28
1918.5	29.5
1919.49	32
1920.48	30
1921.48	27.5
1922.47	28.5
1923.46	30
1924.45	28
1925.44	27.5
1926.43	29.5
1927.43	30.5
1928.42	33
1929.41	31.5
1930.4	29
1931.39	28
1932.38	28.5
1933.37	32.5
1934.36	32.5
1935.35	28
1936.34	28.5
1937.33	28.5
1938.32	31.5
1939.31	35.5
1940.3	29.5
1941.29	24
1942.28	32
1943.26	35.5
1944.25	31
1945.24	29
1946.23	29
1947.22	32
1948.2	29.5
1949.19	31.5
1950.18	32
1951.17	26.5
1952.15	28
1953.14	29.75
1954.13	30.5
1955.12	29.5
1956.1	29.5
1957.09	31
1958.08	27
1959.06	25
1960.05	29.5
1961.03	31.5
1962.02	27
1963.01	31.5
1963.99	29.5
1964.98	31.5
1965.96	31.5
1966.95	30.5
1967.93	28
1968.92	31
1969.9	29
1970.89	29
1971.87	30
1972.85	27.5
1973.84	30
1974.82	29
1975.81	30.5
1976.79	33
1977.77	30
1978.76	30
1979.74	27.5
1980.72	28
1981.7	29
1982.69	29
1983.67	32
1984.65	33
1985.63	31.5
1986.62	30.5
1987.6	33.5
1988.58	29
1989.56	31.5
1990.54	31.5
1991.52	27
1992.51	23
1993.49	35
1994.47	29
1995.45	29
1996.43	27.5
1997.41	26.5
1998.39	30
1999.37	34.5
