#Acq. time (s)=	5
#Accumulations=	5
#Range (cm-¹)=	100...2000
#Windows=	2
#Autofocus=	Off
#AutoExposure=	Off
#Spike filter=	Multiple accum.
#Delay time (s)=	0
#Binning=	1
#Readout mode=	Signal
#DeNoise=	Off
#ICS correction=	Off
#Dark correction=	Off
#Inst. Process=	Off
#Instrument=	LabRAM HR Evol
#Detector=	Syncerity OE
#Objective=	x100_VIS_LWD
#Grating=	600 (500nm)
#ND Filter=	100%
#Laser=	633nm_Edge
#Hole=	100.021
#Range=	Visible
#Project=	Medicas
#Sample=	01
#Site=	01-05-25
#Title=	A1_m06
#Remark=	smp5
#Date=	01.04.2025 14:36
#Acquired=	01.04.2025 14:36:15
101.125	77
102.409	68.5
103.692	71.5
104.976	80.5
106.259	78.5
107.542	76.5
108.824	74
110.106	68.5
111.388	77.5
112.67	71.5
113.951	74
115.233	74.5
116.514	82
117.795	74
119.075	78
120.356	77
121.636	81.5
122.916	81.5
124.196	82.5
125.476	73.5
126.755	82.5
128.035	84.5
129.314	89.5
130.592	85.5
131.871	88
133.149	86.5
134.428	88.5
135.706	96
136.983	103.5
138.261	99.5
139.538	99.5
140.814	106
142.091	106.5
143.368	107
144.644	106
145.92	106.5
147.197	112
148.473	113
149.747	115
151.022	119.5
152.297	128
153.573	123
154.847	121
156.122	132.5
157.395	124
158.669	130.5
159.943	126
161.217	131
162.491	123.5
163.763	121
165.036	129
166.309	123
167.582	121.5
168.853	121.5
170.125	113
171.397	115
172.668	118.5
173.94	112
175.211	117
176.482	119
177.752	115
179.023	123
180.294	125.5
181.563	123
182.833	120.5
184.103	120
185.372	132
186.641	120.5
187.909	126.5
189.179	129
190.448	123.5
191.715	127
192.984	123.5
194.251	124
195.519	117
196.787	116
198.053	124
199.321	113.5
200.587	117
201.854	116
203.12	113.5
204.386	108
205.652	107.5
206.918	107
208.183	101.5
209.449	99.5
210.713	97.5
211.978	91.5
213.242	95.5
214.508	92
215.771	92.5
217.036	98
218.299	87.5
219.563	86.5
220.826	86.5
222.09	86
223.352	81
224.614	87
225.877	82
227.139	87.5
228.402	81.5
229.663	81
230.924	84
232.186	82
233.447	82
234.707	79.5
235.969	77
237.229	77.5
238.489	74.5
239.75	82
241.009	74.5
242.269	78
243.529	77.5
244.788	75.5
246.046	70.5
247.306	72
248.564	75
249.822	74
251.08	74
252.339	72
253.596	74
254.854	76
256.111	67
257.369	68
258.625	76
259.882	72.5
261.138	68.5
262.394	70
263.651	70
264.906	66.5
266.162	67.5
267.417	68
268.672	69
269.926	66
271.181	65
272.437	68.5
273.691	65.5
274.945	67.5
276.198	69
277.452	69.5
278.705	66
279.958	72.5
281.211	70
282.464	66.5
283.716	65
284.969	64
286.221	66.5
287.473	67.5
288.726	70.5
289.977	68
291.228	66.5
292.48	68.5
293.73	63
294.981	69
296.232	62.5
297.482	67.5
298.73	72.5
299.98	72
301.23	69
302.479	63.5
303.729	64
304.978	70.5
306.227	68
307.475	67
308.724	63.5
309.972	64
311.22	66
312.468	65.5
313.715	68
314.961	67.5
316.209	66
317.456	64
318.703	70
319.949	65
321.196	65.5
322.44	71
323.686	71.5
324.932	74
326.178	69.5
327.423	63.5
328.667	70
329.912	70
331.157	69
332.402	62
333.645	66
334.889	65.5
336.133	71
337.377	66.5
338.619	68.5
339.862	67
341.106	67.5
342.349	68
343.59	64
344.833	65.5
346.075	59
347.316	68.5
348.558	64.5
349.8	69.5
351.04	67
352.281	72.5
353.523	65.5
354.762	69
356.003	70
357.242	67
358.483	67
359.723	65
360.961	67
362.201	67
363.44	64
364.679	65.5
365.917	66.5
367.156	59
368.393	66
369.632	62.5
370.87	64.5
372.107	63.5
373.345	65.5
374.582	66
375.819	68
377.055	66.5
378.293	65
379.528	62.5
380.764	69
382	65.5
383.235	62.5
384.471	67.5
385.706	62
386.942	62
388.176	67
389.41	66.5
390.646	60.5
391.879	62
393.114	62.5
394.347	66
395.58	65
396.815	64.5
398.047	63
399.28	63.5
400.513	59
401.745	61.5
402.977	62.5
404.21	62.5
405.442	57
406.673	67
407.906	64
409.137	63
410.367	65
411.598	68.5
412.829	66
414.06	65.5
415.289	64
416.519	64
417.75	65.5
418.979	65.5
420.208	64.5
421.437	67
422.666	69
423.896	66
425.124	62.5
426.352	62.5
427.58	61
428.808	64.5
430.036	67
431.264	63
432.492	64
433.719	61.5
434.945	65
436.172	62
437.398	63
438.624	66.5
439.85	63
441.076	66
442.302	67.5
443.528	63.5
444.754	63
445.979	74
447.203	66
448.428	72.5
449.652	79.5
450.877	67.5
452.101	66
453.324	67
454.548	73
455.772	74
456.995	73.5
458.218	72
459.441	76
460.663	68
461.884	74.5
463.107	71
464.329	83.5
465.55	81.5
466.772	81
467.994	87.5
469.215	91.5
470.436	85.5
471.657	98.5
472.878	99.5
474.097	103
475.317	114
476.537	119.5
477.757	129
478.977	138
480.196	155.5
481.414	167
482.633	180
483.852	196
485.071	209
486.29	216
487.507	234.5
488.725	227.5
489.943	231
491.16	230.5
492.377	222.5
493.594	210
494.811	210.5
496.028	190.5
497.244	186
498.46	177.5
499.677	171
500.892	161
502.108	151
503.323	137
504.538	131.5
505.753	125.5
506.968	125
508.182	120
509.397	110
510.612	107.5
511.825	109.5
513.039	96.5
514.252	97.5
515.466	100
516.679	93.5
517.892	92.5
519.105	89
520.317	84.5
521.53	86
522.741	91
523.953	79.5
525.164	80.5
526.377	80.5
527.587	81.5
528.799	80
530.009	76
531.221	69.5
532.43	74.5
533.641	74.5
534.851	77
536.062	76.5
537.271	78.5
538.481	73.5
539.69	75.5
540.898	72
542.108	67
543.316	70.5
544.525	70
545.733	73
546.94	68
548.149	71
549.356	70.5
550.563	66
551.771	74.5
552.978	61
554.184	71
555.392	70.5
556.598	72.5
557.804	65.5
559.011	63.5
560.216	66.5
561.421	70
562.628	68
563.833	62
565.037	67
566.242	67
567.447	59.5
568.651	68
569.855	65.5
571.059	66
572.263	67.5
573.467	62.5
574.67	63
575.873	65
577.076	63.5
578.279	65
579.481	64.5
580.685	59
581.887	61
583.088	60.5
584.29	68
585.491	62.5
586.693	62.5
587.894	61
589.094	64
590.297	62
591.497	70.5
592.697	59.5
593.897	70.5
595.097	64
596.297	67.5
597.497	64.5
598.696	64
599.895	62
601.094	68
602.293	65.5
603.491	64
604.69	66.5
605.888	57
607.086	64
608.284	56.5
609.481	66
610.679	61
611.876	64
613.072	67.5
614.269	63.5
615.465	63
616.662	63
617.858	64
619.054	69.5
620.25	63
621.446	68
622.641	70
623.835	65.5
625.031	59
626.226	62
627.42	65
628.615	65
629.809	66.5
631.002	68.5
632.196	64.5
633.39	67
634.584	63.5
635.776	66.5
636.969	66.5
638.162	64
639.355	64
640.547	65.5
641.739	71.5
642.932	69.5
644.124	69
645.314	71.5
646.506	69
647.698	68.5
648.888	69
650.079	71
651.27	63.5
652.459	64
653.65	67
654.841	66
656.03	72.5
657.22	65.5
658.408	72.5
659.598	63
660.787	69.5
661.975	70.5
663.165	66.5
664.352	71
665.541	70
666.728	72
667.917	75.5
669.105	75.5
670.292	72
671.479	71.5
672.666	72.5
673.853	77
675.039	71
676.226	73.5
677.412	82
678.597	79
679.784	78
680.969	85.5
682.155	85
683.34	89
684.526	92
685.71	95
686.894	97.5
688.079	96.5
689.263	93
690.448	95.5
691.631	92.5
692.814	94
693.998	97
695.181	92.5
696.364	99.5
697.548	96.5
698.73	106
699.912	106.5
701.095	107.5
702.277	113
703.458	120.5
704.641	135.5
705.822	154.5
707.003	166.5
708.184	178
709.366	184
710.546	185
711.726	172
712.906	154
714.086	138
715.267	120
716.446	109.5
717.626	92
718.805	90
719.984	87
721.164	83
722.342	83.5
723.52	77
724.699	71.5
725.877	80.5
727.054	62
728.232	71.5
729.409	68
730.587	73
731.765	64.5
732.942	62.5
734.119	64.5
735.295	71.5
736.471	72
737.647	63
738.823	66
739.999	62.5
741.175	65
742.35	70.5
743.525	65.5
744.7	65
745.875	62
747.05	63
748.224	67
749.399	65
750.573	66
751.747	64.5
752.92	63.5
754.093	63
755.266	60.5
756.439	65
757.612	67.5
758.785	64
759.958	62
761.13	64
762.302	60
763.473	60.5
764.645	64
765.817	64
766.988	64.5
768.16	60
769.331	61
770.5	60.5
771.671	68
772.842	62
774.012	63
775.181	69.5
776.351	66.5
777.521	66
778.691	65.5
779.859	72.5
781.028	69
782.198	77
783.367	80
784.534	73
785.703	81
786.871	82.5
788.038	76
789.206	72
790.374	76.5
791.54	78.5
792.708	77
793.874	77
795.041	70
796.208	72.5
797.374	75
798.54	69
799.705	76.5
800.872	68
802.038	71.5
803.202	67
804.368	72
805.532	64
806.697	70
807.861	64.5
809.026	67
810.19	68
811.354	63.5
812.517	68
813.682	70.5
814.844	69.5
816.008	66
817.171	69
818.334	60.5
819.496	63.5
820.658	65.5
821.821	61
822.983	62.5
824.145	65
825.306	65
826.467	63
827.629	62
828.79	60
829.95	59.5
831.112	63
832.272	58
833.432	65.5
834.593	60.5
835.752	57.5
836.912	66
838.072	62
839.231	69
840.39	68
841.548	64
842.708	64.5
843.866	65.5
845.025	58.5
846.182	64
847.341	64.5
848.499	65
849.656	65
850.813	70
851.97	63
853.129	65
854.285	66
855.442	67.5
856.598	71
857.754	68
858.91	73
860.066	75.5
861.223	66.5
862.378	73.5
863.533	76.5
864.688	72
865.843	68.5
866.998	71.5
868.152	72
869.306	71
870.46	71
871.614	65.5
872.768	63.5
873.922	66
875.075	64
876.228	69
877.381	62.5
878.534	62
879.687	62
880.839	64
881.992	65
883.144	65
884.296	61.5
885.448	64
886.599	62.5
887.751	61
888.902	64.5
890.053	61.5
891.203	63
892.353	61
893.504	64
894.654	64.5
895.805	57
896.955	62
898.103	58
899.253	56
900.402	59.5
901.552	55
902.701	59
903.848	59
904.997	57.5
906.146	57.5
907.294	55
908.442	56.5
909.589	64
910.737	58.5
911.885	62
913.031	60
914.178	64.5
915.326	58
916.471	60.5
917.618	63.5
918.765	61.5
919.91	57.5
921.056	58
922.202	59.5
923.347	58
924.493	61
925.638	59
926.782	57
927.928	57
929.071	59.5
930.216	60
931.361	63
932.504	55
933.648	60
934.791	58.5
935.935	60
937.078	57
938.221	57.5
939.364	57
940.507	56
941.649	60.5
942.792	51.5
943.933	55
945.076	59.5
946.217	61
947.359	54
948.5	57
949.64	58
950.782	62.5
951.922	57.5
953.064	55
954.204	53.5
955.343	60
956.484	61
957.623	58.5
958.763	55
959.903	65
961.042	60
962.18	55
963.32	56
964.458	59
965.597	62
966.736	57
967.874	55
969.011	56
970.149	59
971.287	59.5
972.424	59
973.561	57
974.698	61
975.836	58
976.972	59.5
978.108	60
979.244	58
980.38	60.5
981.516	60
982.653	61
983.788	59
984.923	55
986.058	60.5
987.193	59
988.328	58.5
989.462	56
990.596	60
991.732	57
992.866	58
993.999	62.5
995.133	59
996.266	55
997.4	54
998.533	58
999.666	62
1000.8	57.5
1001.93	56.5
1003.06	65.5
1004.2	58
1005.33	57
1006.46	56.5
1007.59	58.5
1008.72	60
1009.85	62.5
1010.99	56.5
1012.12	57
1013.25	59.5
1014.38	56.5
1015.51	63
1016.64	58
1017.77	59
1018.9	63.5
1020.03	57
1021.16	61
1022.28	59
1023.41	59
1024.54	51
1025.67	58
1026.8	60.5
1027.93	60.5
1029.06	55
1030.18	56
1031.31	58.5
1032.44	59.5
1033.57	59
1034.69	62
1035.82	58
1036.95	55
1038.07	60.5
1039.2	53
1040.33	56
1041.45	55
1042.58	61.5
1043.7	63
1044.83	60.5
1045.96	62.5
1047.08	57
1048.21	52.5
1049.33	57
1050.45	55
1051.58	52
1052.7	58
1053.83	55
1054.95	63.5
1056.08	62.5
1057.2	59
1058.32	61.5
1059.45	60
1060.57	56
1061.69	55.5
1062.81	58
1063.94	54
1065.06	54.5
1066.18	55
1067.3	56.5
1068.42	57.5
1069.55	56.5
1070.67	60.5
1071.79	61
1072.91	54
1074.03	58.5
1075.15	57.5
1076.27	62
1077.39	52
1078.51	60.5
1079.63	53.5
1080.75	54
1081.87	59
1082.99	58
1084.11	58
1085.23	56
1086.35	57.5
1087.46	56
1088.58	54
1089.7	56
1090.82	51.5
1091.94	56.5
1093.05	60
1094.17	58
1095.29	63
1096.41	56.5
1097.52	53.5
1098.64	55.5
1099.76	58.5
1100.87	60.5
1101.99	56.5
1103.1	63
1104.22	56.5
1105.34	61
1106.45	58.5
1107.57	62.5
1108.68	54
1109.8	58
1110.91	60
1112.03	57
1113.14	59
1114.25	52
1115.37	55
1116.48	51
1117.6	55.5
1118.71	57.5
1119.82	55
1120.94	54
1122.05	52.5
1123.16	59
1124.27	56
1125.39	59.5
1126.5	56
1127.61	54
1128.72	56.5
1129.83	52
1130.95	52
1132.06	51.5
1133.17	55
1134.28	54
1135.39	57
1136.5	56
1137.61	59
1138.72	56
1139.83	55
1140.94	50.5
1142.05	56
1143.16	57
1144.27	56.5
1145.38	53
1146.49	58
1147.6	61
1148.7	58
1149.81	57.5
1150.92	58
1152.03	57.5
1153.14	52
1154.25	53
1155.35	55
1156.46	58
1157.57	55
1158.67	53
1159.78	54
1160.89	54
1161.99	61
1163.1	55
1164.21	50.5
1165.31	58
1166.42	59.5
1167.52	52
1168.63	54
1169.73	53
1170.84	54
1171.94	51.5
1173.05	53
1174.15	53.5
1175.26	57
1176.36	59
1177.46	52
1178.57	53
1179.67	55
1180.78	55.5
1181.88	57
1182.98	56
1184.08	58.5
1185.19	56
1186.29	54
1187.39	54.5
1188.49	57.5
1189.6	58.5
1190.7	56
1191.8	53
1192.9	59
1194	54.5
1195.1	55.5
1196.2	54
1197.31	59.5
1198.41	56
1199.51	57.9625
1200.61	52.4298
1201.71	53.8707
1202.81	54.9176
1203.91	58.3861
1205	53.3163
1206.1	53.6384
1207.2	55.9509
1208.3	53.3612
1209.4	56.095
1210.5	54.0863
1211.6	55.4175
1212.7	53.0181
1213.79	56.2662
1214.89	53.1166
1215.99	52.0314
1217.09	55.5148
1218.18	52.6639
1219.28	53.0971
1220.38	54.6352
1221.47	54.406
1222.57	51.3446
1223.67	51.4531
1224.77	56.12
1225.86	49.7599
1226.96	57.509
1228.05	58.6048
1229.15	57.3874
1230.24	58.7739
1231.34	57.3132
1232.43	51.7236
1233.53	52.4387
1234.62	51.4615
1235.72	53.6657
1236.81	56.246
1237.91	50.7243
1239	56.04
1240.09	55.0351
1241.19	48.6752
1242.28	52.4151
1243.37	53.2753
1244.47	52.5565
1245.56	53.1338
1246.65	52.665
1247.75	54.2452
1248.84	53.6138
1249.93	53.5263
1251.02	55.0842
1252.11	55.2462
1253.2	55.6074
1254.3	56.594
1255.39	58.2324
1256.48	63.9048
1257.57	62.1697
1258.66	63.0705
1259.75	63.2837
1260.84	65.6705
1261.93	62.7227
1263.02	62.9983
1264.11	64.3158
1265.2	61.1975
1266.29	62.1061
1267.38	58.0379
1268.47	56.4716
1269.56	54.8042
1270.65	52.1025
1271.74	55.3202
1272.82	55.0253
1273.91	54.1386
1275	52.4913
1276.09	51.8238
1277.18	52.1884
1278.26	52.1615
1279.35	52.5452
1280.44	50.1201
1281.53	50.6318
1282.61	51.4971
1283.7	51.0215
1284.79	50.749
1285.87	51.002
1286.96	51.4511
1288.04	52.0735
1289.13	54.4327
1290.22	53.0733
1291.3	52.5552
1292.39	50.87
1293.47	51.5263
1294.56	51.8089
1295.64	51.3996
1296.73	52.4488
1297.81	48.4387
1298.89	52.3957
1299.98	46.9757
1301.06	50.5486
1302.15	55.3098
1303.23	52.4764
1304.31	51.575
1305.4	50.7193
1306.48	48.9925
1307.56	48.905
1308.44	50.5
1309.53	51.5
1310.62	49
1311.7	47.5
1312.79	56
1313.88	50.5
1314.97	51
1316.05	54
1317.14	48
1318.23	53
1319.31	55.5
1320.4	50
1321.49	50
1322.57	53.5
1323.66	55
1324.74	49
1325.83	45
1326.91	54.5
1328	51.5
1329.08	50
1330.17	51
1331.25	48
1332.34	52
1333.42	49.5
1334.5	47
1335.59	52
1336.67	49
1337.76	49.5
1338.84	53.5
1339.92	51
1341.01	50.5
1342.09	46.5
1343.17	47.5
1344.25	57.5
1345.34	48.5
1346.42	47.5
1347.5	51.5
1348.58	54
1349.66	53
1350.75	52.5
1351.83	50
1352.91	49
1353.99	51
1355.07	51
1356.15	49.5
1357.23	47
1358.31	55
1359.39	52.5
1360.47	51
1361.55	51
1362.63	53
1363.71	55
1364.79	47.5
1365.87	51
1366.95	51.5
1368.02	48
1369.1	54.5
1370.18	56.5
1371.26	47.5
1372.34	51.5
1373.42	56.5
1374.49	54.5
1375.57	54
1376.65	52
1377.72	51
1378.8	53.5
1379.88	50.5
1380.95	55
1382.03	57
1383.11	52
1384.18	53
1385.26	56
1386.34	51
1387.41	55.5
1388.49	58.5
1389.56	52.5
1390.64	55.5
1391.71	58
1392.79	58.5
1393.86	57.5
1394.94	61
1396.01	56.5
1397.08	59.5
1398.16	59
1399.23	65
1400.31	65
1401.38	72
1402.45	69.5
1403.53	69.5
1404.6	65.5
1405.67	77
1406.74	74.5
1407.82	76
1408.89	77
1409.96	73
1411.03	77
1412.1	82
1413.18	84.5
1414.25	78.5
1415.32	74.5
1416.39	72
1417.46	71.5
1418.53	67
1419.6	71
1420.67	67.5
1421.74	68.5
1422.81	68
1423.88	59.5
1424.95	67
1426.02	56
1427.09	67.5
1428.16	60.5
1429.23	56
1430.3	60.5
1431.36	60.5
1432.43	61.5
1433.5	54.5
1434.57	55.5
1435.64	58.5
1436.71	59
1437.77	55.5
1438.84	55
1439.91	56.5
1440.97	52
1442.04	53.5
1443.11	57.5
1444.18	59
1445.24	53
1446.31	52
1447.37	50.5
1448.44	55.5
1449.51	55.5
1450.57	56
1451.64	55
1452.7	57
1453.77	59
1454.83	58
1455.9	57.5
1456.96	55.5
1458.03	50
1459.09	50
1460.15	52.5
1461.22	51
1462.28	52.5
1463.35	50.5
1464.41	48.5
1465.47	55.5
1466.53	56.5
1467.6	54.5
1468.66	58
1469.72	52.5
1470.79	52.5
1471.85	51.5
1472.91	55.5
1473.97	55
1475.03	52
1476.1	58
1477.16	54.5
1478.22	48
1479.28	57.5
1480.34	55
1481.4	52
1482.46	54.5
1483.52	54
1484.58	55
1485.64	56.5
1486.7	56
1487.76	54.5
1488.82	52
1489.88	53
1490.94	59
1492	55
1493.06	55
1494.12	50.5
1495.17	51
1496.23	56.5
1497.29	53.5
1498.35	55.5
1499.41	54.5
1500.46	53.5
1501.52	53
1502.58	53.5
1503.64	56
1504.69	53
1505.75	50
1506.81	56.5
1507.86	52.5
1508.92	49
1509.98	56
1511.03	55
1512.09	59
1513.14	54.5
1514.2	53.5
1515.26	54
1516.31	53
1517.37	50.5
1518.42	53.5
1519.47	49
1520.53	50.5
1521.58	54
1522.64	53
1523.69	51.5
1524.75	48.5
1525.8	56
1526.85	47
1527.91	50
1528.96	53.5
1530.01	52.5
1531.07	54.5
1532.12	54
1533.17	54
1534.22	50.5
1535.28	54
1536.33	50.5
1537.38	50.5
1538.43	54.5
1539.48	49.5
1540.54	55
1541.59	52
1542.64	54
1543.69	53
1544.74	51
1545.79	53
1546.84	50.5
1547.89	47.5
1548.94	48.5
1549.99	54
1551.04	50
1552.09	48
1553.14	50
1554.19	52
1555.24	51
1556.29	51
1557.34	47.5
1558.38	46.5
1559.43	52
1560.48	48.5
1561.53	50
1562.58	52
1563.62	50
1564.67	54
1565.72	51
1566.77	57.5
1567.81	49.5
1568.86	49
1569.91	50.5
1570.95	51.5
1572	52
1573.05	55
1574.09	49.5
1575.14	50
1576.18	46
1577.23	52
1578.28	46
1579.32	51
1580.37	51.5
1581.41	51
1582.46	51
1583.5	53
1584.55	53
1585.59	50.5
1586.63	49.5
1587.68	52.5
1588.72	51
1589.76	55
1590.81	53.5
1591.85	49
1592.89	47
1593.94	46
1594.98	51.5
1596.02	51.5
1597.07	54.5
1598.11	51.5
1599.15	48.5
1600.19	59
1601.23	47.5
1602.28	50.5
1603.32	47
1604.36	49
1605.4	52.5
1606.44	50.5
1607.48	54.5
1608.52	49.5
1609.56	50
1610.6	51
1611.64	50.5
1612.68	57.5
1613.72	51
1614.76	43
1615.8	52.5
1616.84	47.5
1617.88	49.5
1618.92	51
1619.96	43
1621	46.5
1622.04	51
1623.08	45
1624.11	53
1625.15	49
1626.19	53.5
1627.23	48.5
1628.27	52
1629.3	50
1630.34	54
1631.38	49.5
1632.41	50.5
1633.45	51
1634.49	50
1635.52	52
1636.56	49.5
1637.6	52
1638.63	49
1639.67	48.5
1640.7	50.5
1641.74	51.5
1642.77	52
1643.81	44
1644.84	49
1645.88	52.5
1646.91	53
1647.95	49.5
1648.98	49.5
1650.02	48
1651.05	46
1652.09	53.5
1653.12	49.5
1654.15	54
1655.19	47
1656.22	48.5
1657.25	47.5
1658.29	51
1659.32	51.5
1660.35	50
1661.38	48
1662.42	45.5
1663.45	52
1664.48	50.5
1665.51	51.5
1666.54	48
1667.57	46
1668.61	47
1669.64	49.5
1670.67	51.5
1671.7	48
1672.73	49
1673.76	48.5
1674.79	45.5
1675.82	47
1676.85	48
1677.88	51
1678.91	50
1679.94	48
1680.97	52
1682	51
1683.03	47
1684.06	51
1685.08	48
1686.11	48
1687.14	49
1688.17	47
1689.2	51.5
1690.23	48
1691.25	50
1692.28	49
1693.31	52
1694.34	45.5
1695.36	46
1696.39	51
1697.42	49
1698.44	52
1699.47	54.5
1700.5	46
1701.52	48.5
1702.55	49.5
1703.57	43
1704.6	48
1705.63	50
1706.65	49
1707.68	50
1708.7	49.5
1709.73	45
1710.75	48.5
1711.78	45
1712.8	43.5
1713.82	47.5
1714.85	46
1715.87	49
1716.9	49.5
1717.92	47.5
1718.94	44
1719.97	49.5
1720.99	49
1722.01	47
1723.04	43.5
1724.06	43
1725.08	50.5
1726.1	47
1727.12	53
1728.15	49.5
1729.17	49.5
1730.19	47.5
1731.21	50.5
1732.23	50
1733.26	46
1734.28	48.5
1735.3	53
1736.32	46
1737.34	53
1738.36	47.5
1739.38	44.5
1740.4	48.5
1741.42	45
1742.44	53.5
1743.46	46
1744.48	47.5
1745.5	47
1746.52	48
1747.54	47
1748.55	49.5
1749.57	51
1750.59	47
1751.61	49.5
1752.63	47
1753.65	45
1754.66	43.5
1755.68	46
1756.7	49
1757.72	48
1758.73	45.5
1759.75	45
1760.77	47
1761.78	51.5
1762.8	48.5
1763.82	45.5
1764.83	49.5
1765.85	48
1766.87	49
1767.88	44.5
1768.9	46.5
1769.91	43.5
1770.93	49.5
1771.94	45
1772.96	49.5
1773.97	45.5
1774.99	49.5
1776	48.5
1777.02	48
1778.03	46.5
1779.05	48.5
1780.06	53
1781.07	42.5
1782.09	50.5
1783.1	48
1784.11	47.5
1785.13	51
1786.14	46.5
1787.15	44
1788.17	44.5
1789.18	50
1790.19	51.5
1791.2	49
1792.22	46.5
1793.23	45.5
1794.24	46
1795.25	53
1796.26	43
1797.27	46
1798.28	44.5
1799.29	49.5
1800.31	48
1801.32	48
1802.33	45.5
1803.34	45.5
1804.35	45.5
1805.36	45.5
1806.37	45
1807.38	47.5
1808.39	47
1809.4	47.5
1810.4	48
1811.41	41.5
1812.42	43.5
1813.43	47.5
1814.44	46
1815.45	49
1816.46	49.5
1817.47	47
1818.47	48.5
1819.48	49
1820.49	41.5
1821.5	50.5
1822.5	42
1823.51	47
1824.52	44.5
1825.52	49.5
1826.53	45
1827.54	46.5
1828.54	45.5
1829.55	51
1830.56	47.5
1831.56	48.5
1832.57	45
1833.57	48.5
1834.58	44
1835.58	45.5
1836.59	52
1837.6	46.5
1838.6	40
1839.61	45
1840.61	42.5
1841.61	45.5
1842.62	47
1843.62	47.5
1844.63	47
1845.63	47
1846.63	43
1847.64	51
1848.64	51
1849.64	46.5
1850.65	47.5
1851.65	46
1852.65	43.5
1853.65	43
1854.66	42
1855.66	45
1856.66	46.5
1857.66	45.5
1858.67	46
1859.67	42.5
1860.67	46
1861.67	47
1862.67	49
1863.67	45
1864.67	46
1865.67	40.5
1866.67	45.5
1867.67	48
1868.67	46
1869.67	49
1870.67	46
1871.67	48.5
1872.67	48.5
1873.67	45.5
1874.67	47
1875.67	46.5
1876.67	44
1877.67	47
1878.67	49.5
1879.67	43.5
1880.66	48.5
1881.66	44.5
1882.66	45.5
1883.66	50
1884.66	49
1885.65	46
1886.65	45
1887.65	47
1888.65	43.5
1889.64	44
1890.64	46
1891.64	45.5
1892.63	48
1893.63	49
1894.62	46
1895.62	45.5
1896.62	47.5
1897.61	43
1898.61	44.5
1899.6	43.5
1900.6	47.5
1901.59	48
1902.59	43
1903.58	48.5
1904.58	45
1905.57	45
1906.57	43
1907.56	44.5
1908.56	47
1909.55	46
1910.54	47.5
1911.54	48
1912.53	50
1913.52	47
1914.52	46
1915.51	45
1916.5	45
1917.5	48
1918.49	48
1919.48	46
1920.47	43
1921.46	42.5
1922.46	48.5
1923.45	43.5
1924.44	42
1925.43	42
1926.42	44
1927.41	41.5
1928.4	41.5
1929.39	45.5
1930.39	44.5
1931.38	45
1932.37	43
1933.36	46
1934.35	46.5
1935.34	37.5
1936.33	46
1937.32	49
1938.31	46
1939.29	45
1940.28	49
1941.27	42.5
1942.26	43.5
1943.25	46
1944.24	45.5
1945.23	44
1946.22	47.5
1947.2	46
1948.19	46.5
1949.18	44.5
1950.17	43
1951.15	46
1952.14	45
1953.13	47.25
1954.12	47
1955.1	39.5
1956.09	49.5
1957.08	45
1958.06	48
1959.05	41.5
1960.04	46
1961.02	43
1962.01	49
1962.99	47
1963.98	45
1964.96	40.5
1965.95	44
1966.93	44.5
1967.92	46.5
1968.9	44.5
1969.89	45.5
1970.87	49.5
1971.86	44.5
1972.84	42
1973.82	44
1974.81	46.5
1975.79	43
1976.78	41.5
1977.76	41
1978.74	45.5
1979.73	40
1980.71	42.5
1981.69	44
1982.67	46.5
1983.66	39
1984.64	43
1985.62	44.5
1986.6	45
1987.59	47
1988.57	43
1989.55	39
1990.53	43.5
1991.51	42
1992.49	42
1993.47	45
1994.45	43
1995.44	44.5
1996.42	40
1997.4	47.5
1998.38	41.5
1999.36	45
