#Acq. time (s)=	3
#Accumulations=	3
#Range (cm-¹)=	100...3000
#Windows=	3
#Autofocus=	Off
#AutoExposure=	Off
#Spike filter=	Multiple accum.
#Delay time (s)=	0
#Binning=	1
#Readout mode=	Signal
#DeNoise=	Off
#ICS correction=	Off
#Dark correction=	Off
#Inst. Process=	Off
#Instrument=	LabRAM HR Evol
#Detector=	Syncerity OE
#Objective=	x100_VIS_LWD
#Grating=	600 (500nm)
#ND Filter=	25%
#Laser=	633nm_Edge
#Hole=	100.021
#Range=	Visible
#Project=	Bolus
#Sample=	B2
#Site=	stripside
#Title=	m10
#Remark=	
#Date=	03.11.2025 17:55
#Acquired=	03.11.2025 17:55:06
100.969	25
102.252	32
103.535	31
104.818	35
106.101	28
107.384	30
108.666	28
109.948	30
111.232	32
112.514	32
113.795	30
115.077	36
116.358	34
117.639	36
118.919	30
120.2	27
121.48	32
122.76	36
124.04	36
125.32	32
126.599	32
127.879	33
129.158	33
130.436	35
131.715	38
132.992	28
134.27	38
135.548	34
136.826	38
138.104	39
139.381	36
140.658	36
141.935	34
143.212	35
144.489	38
145.763	46
147.04	40
148.315	40
149.591	31
150.867	39
152.142	46
153.416	43
154.691	41
155.965	38
157.24	36
158.514	44
159.786	48
161.06	41
162.334	45
163.607	43
164.881	38
166.152	43
167.425	40
168.698	38
169.969	40
171.241	46
172.513	34
173.785	40
175.055	34
176.326	43
177.597	40
178.867	40
180.137	46
181.408	45
182.677	41
183.947	43
185.217	42
186.485	46
187.755	41
189.022	38
190.291	40
191.56	46
192.828	39
194.096	34
195.363	32
196.631	41
197.899	42
199.165	38
200.432	43
201.698	39
202.965	42
204.23	38
205.497	41
206.762	36
208.028	34
209.293	39
210.559	36
211.823	38
213.088	40
214.352	34
215.617	41
216.88	34
218.145	38
219.408	36
220.672	39
221.934	32
223.196	38
224.46	36
225.722	36
226.985	28
228.246	30
229.508	33
230.77	34
232.031	38
233.292	30
234.554	38
235.814	32
237.074	32
238.335	28
239.595	32
240.854	32
242.115	34
243.374	27
244.633	34
245.893	31
247.151	29
248.409	28
249.667	31
250.927	35
252.184	32
253.442	28
254.699	30
255.957	32
257.214	32
258.47	33
259.727	30
260.983	28
262.24	34
263.496	33
264.752	32
266.007	32
267.262	30
268.517	36
269.773	32
271.028	28
272.282	28
273.536	32
274.79	30
276.044	34
277.297	30
278.551	27
279.804	31
281.057	28
282.31	34
283.564	32
284.816	33
286.068	27
287.32	31
288.572	28
289.823	30
291.074	26
292.325	33
293.576	30
294.827	29
296.077	32
297.328	23
298.578	34
299.828	26
301.077	29
302.325	29
303.575	33
304.824	36
306.073	33
307.321	30
308.57	28
309.818	32
311.066	28
312.314	26
313.562	31
314.808	33
316.055	31
317.302	35
318.549	30
319.796	33
321.042	26
322.288	32
323.533	32
324.779	26
326.024	30
327.27	35
328.515	32
329.759	26
331.004	29
332.248	28
333.493	22
334.736	34
335.98	29
337.223	34
338.466	30
339.709	30
340.952	31
342.195	29
343.437	29
344.68	32
345.922	29
347.163	34
348.405	28
349.647	30
350.887	30
352.128	31
353.37	30
354.609	38
355.85	32
357.089	31
358.33	28
359.57	25
360.809	34
362.049	24
363.287	31
364.526	27
365.764	34
367.003	30
368.241	30
369.479	31
370.718	36
371.955	30
373.193	32
374.429	28
375.667	32
376.903	30
378.139	27
379.376	34
380.611	30
381.848	32
383.083	34
384.319	26
385.554	33
386.79	30
388.024	35
389.258	22
390.493	28
391.727	24
392.962	33
394.195	28
395.428	33
396.663	32
397.895	34
399.128	32
400.361	31
401.593	32
402.825	31
404.058	34
405.29	29
406.521	28
407.752	31
408.985	30
410.215	30
411.446	31
412.678	28
413.908	38
415.138	33
416.367	33
417.597	24
418.828	28
420.057	28
421.286	35
422.514	24
423.743	27
424.973	32
426.201	32
427.429	32
428.657	30
429.884	33
431.112	26
432.34	34
433.567	30
434.794	32
436.02	32
437.247	32
438.473	30
439.699	30
440.925	30
442.15	32
443.376	26
444.601	29
445.826	33
447.051	35
448.275	28
449.5	36
450.724	24
451.948	30
453.172	29
454.396	34
455.619	32
456.842	32
458.065	34
459.288	28
460.511	31
461.733	32
462.956	35
464.178	30
465.4	32
466.621	40
467.843	31
469.064	38
470.285	30
471.505	40
472.726	40
473.946	39
475.166	43
476.387	32
477.606	42
478.825	38
480.044	45
481.264	50
482.483	48
483.702	47
484.921	54
486.138	52
487.356	56
488.574	53
489.792	59
491.009	60
492.226	58
493.444	57
494.661	52
495.877	51
497.094	48
498.31	54
499.525	46
500.741	44
501.958	40
503.172	45
504.388	38
505.603	41
506.817	39
508.032	38
509.247	40
510.46	38
511.675	32
512.888	35
514.102	38
515.316	34
516.528	33
517.742	42
518.954	31
520.167	35
521.378	30
522.591	36
523.802	32
525.015	36
526.226	34
527.438	34
528.648	31
529.86	32
531.07	30
532.281	34
533.491	32
534.702	30
535.911	35
537.121	30
538.33	28
539.54	31
540.749	24
541.957	37
543.167	34
544.375	38
545.584	34
546.791	30
547.999	33
549.207	32
550.414	27
551.621	31
552.829	33
554.035	33
555.241	28
556.449	35
557.655	28
558.86	31
560.066	31
561.272	34
562.477	32
563.682	30
564.888	35
566.093	25
567.297	28
568.501	24
569.705	24
570.91	35
572.114	28
573.317	32
574.52	36
575.723	32
576.927	35
578.13	30
579.332	24
580.535	30
581.737	29
582.938	27
584.14	28
585.343	27
586.544	32
587.745	30
588.946	32
590.147	31
591.347	28
592.548	34
593.748	28
594.948	29
596.147	30
597.347	29
598.546	31
599.745	30
600.944	32
602.143	35
603.342	32
604.54	30
605.738	30
606.937	29
608.134	34
609.332	32
610.529	35
611.727	34
612.924	34
614.121	31
615.317	26
616.513	28
617.709	33
618.905	33
620.101	31
621.297	34
622.492	29
623.688	29
624.883	33
626.077	32
627.271	34
628.466	30
629.66	30
630.855	33
632.047	33
633.241	34
634.435	38
635.629	29
636.82	30
638.014	33
639.207	32
640.399	33
641.59	30
642.783	32
643.975	32
645.166	33
646.357	34
647.549	31
648.741	33
649.93	34
651.122	33
652.311	32
653.502	28
654.692	28
655.881	33
657.071	28
658.261	37
659.45	31
660.639	35
661.827	30
663.016	34
664.204	30
665.393	26
666.581	32
667.769	34
668.957	34
670.143	31
671.331	30
672.518	34
673.705	33
674.891	34
676.078	36
677.264	32
678.451	33
679.636	40
680.821	32
682.007	32
683.192	38
684.378	34
685.562	38
686.747	36
687.931	30
689.115	36
690.3	40
691.483	36
692.666	36
693.851	36
695.034	36
696.216	40
697.4	38
698.582	39
699.764	41
700.948	36
702.129	33
703.311	45
704.493	43
705.674	46
706.855	46
708.036	53
709.218	49
710.399	51
711.579	46
712.759	36
713.939	49
715.12	45
716.299	36
717.478	40
718.657	32
719.836	34
721.015	33
722.195	35
723.373	33
724.552	31
725.729	30
726.907	36
728.085	28
729.262	34
730.44	29
731.617	32
732.795	31
733.972	28
735.148	28
736.324	30
737.501	32
738.677	37
739.852	32
741.028	31
742.203	32
743.379	32
744.554	29
745.729	30
746.903	31
748.078	30
749.252	32
750.426	33
751.599	32
752.772	30
753.946	29
755.119	32
756.293	34
757.466	32
758.639	32
759.811	28
760.984	31
762.155	31
763.327	29
764.499	26
765.67	30
766.842	35
768.013	37
769.183	31
770.354	32
771.525	26
772.696	32
773.865	34
775.035	32
776.205	30
777.375	34
778.544	36
779.713	34
780.882	32
782.052	38
783.219	31
784.388	33
785.557	31
786.724	37
787.892	36
789.06	36
790.227	35
791.395	31
792.562	34
793.728	32
794.895	36
796.061	30
797.228	32
798.395	31
799.56	34
800.726	33
801.891	36
803.057	31
804.221	30
805.387	31
806.551	35
807.716	36
808.879	30
810.044	34
811.208	33
812.372	32
813.535	37
814.699	30
815.862	28
817.025	33
818.188	30
819.351	30
820.513	32
821.675	30
822.837	33
823.999	22
825.161	29
826.322	28
827.483	29
828.645	27
829.805	26
830.966	29
832.127	24
833.287	37
834.447	34
835.607	30
836.767	32
837.926	32
839.085	33
840.245	26
841.404	26
842.562	32
843.72	27
844.88	30
846.038	34
847.195	33
848.353	32
849.512	27
850.669	26
851.826	28
852.983	30
854.139	28
855.296	24
856.453	34
857.609	31
858.765	28
859.921	33
861.077	33
862.232	32
863.387	31
864.542	33
865.697	29
866.852	34
868.008	32
869.162	32
870.316	36
871.47	28
872.624	33
873.778	32
874.931	28
876.084	22
877.237	33
878.39	28
879.543	30
880.695	31
881.846	33
882.999	32
884.151	30
885.302	28
886.454	26
887.606	33
888.757	31
889.908	30
891.059	27
892.21	34
893.359	32
894.509	32
895.659	36
896.81	31
897.959	27
899.109	26
900.257	26
901.407	30
902.556	30
903.705	29
904.854	33
906.001	28
907.149	28
908.298	27
909.446	30
910.592	28
911.74	28
912.888	31
914.034	28
915.181	29
916.328	30
917.473	34
918.62	35
919.766	28
920.911	30
922.058	30
923.204	27
924.348	31
925.494	32
926.638	30
927.783	31
928.928	32
930.072	33
931.216	30
932.36	28
933.504	24
934.647	27
935.791	25
936.933	32
938.077	22
939.219	29
940.363	28
941.504	27
942.647	26
943.789	27
944.932	28
946.073	20
947.215	32
948.356	32
949.498	30
950.638	30
951.778	30
952.92	28
954.06	28
955.199	32
956.34	29
957.479	26
958.62	27
959.759	34
960.898	26
962.038	33
963.176	32
964.315	31
965.453	26
966.592	26
967.73	26
968.867	30
970.006	32
971.144	32
972.281	32
973.418	33
974.554	23
975.692	28
976.829	30
977.965	32
979.101	27
980.237	30
981.374	23
982.509	22
983.645	28
984.78	32
985.915	28
987.05	31
988.184	28
989.319	29
990.453	28
991.589	30
992.722	29
993.856	31
994.99	29
996.123	30
997.257	26
998.39	27
999.523	33
1000.66	33
1001.79	28
1002.92	26
1004.05	28
1005.18	28
1006.32	29
1007.45	30
1008.58	28
1009.71	26
1010.84	26
1011.97	29
1013.1	29
1014.23	30
1015.36	27
1016.49	30
1017.62	26
1018.75	28
1019.88	31
1021.01	31
1022.14	28
1023.27	31
1024.4	28
1025.53	24
1026.66	30
1027.79	30
1028.91	26
1030.04	34
1031.17	28
1032.3	22
1033.42	28
1034.55	30
1035.68	29
1036.81	27
1037.93	28
1039.06	29
1040.18	31
1041.31	29
1042.44	26
1043.56	29
1044.69	31
1045.81	29
1046.94	30
1048.06	22
1049.19	28
1050.31	25
1051.44	27
1052.56	30
1053.69	25
1054.81	26
1055.93	29
1057.06	30
1058.18	29
1059.3	28
1060.43	29
1061.55	29
1062.67	31
1063.79	32
1064.92	31
1066.04	31
1067.16	26
1068.28	28
1069.4	28
1070.52	30
1071.65	26
1072.77	33
1073.89	28
1075.01	34
1076.13	28
1077.25	30
1078.37	32
1079.49	30
1080.61	26
1081.73	28
1082.85	26
1083.97	28
1085.09	26
1086.2	29
1087.32	30
1088.44	31
1089.56	31
1090.68	27
1091.8	30
1092.91	32
1094.03	24
1095.15	28
1096.26	26
1097.38	28
1098.5	30
1099.61	25
1100.73	24
1101.85	30
1102.96	32
1104.08	26
1105.19	32
1106.31	22
1107.43	34
1108.54	24
1109.66	28
1110.77	26
1111.88	28
1113	34
1114.11	26
1115.23	27
1116.34	32
1117.46	32
1118.57	30
1119.68	26
1120.8	26
1121.91	26
1123.02	30
1124.13	24
1125.25	26
1126.36	25
1127.47	30
1128.58	26
1129.69	26
1130.8	24
1131.92	30
1133.03	27
1134.14	32
1135.25	31
1136.36	27
1137.47	30
1138.58	24
1139.69	28
1140.8	32
1141.91	27
1143.02	29
1144.13	24
1145.24	20
1146.35	28
1147.46	24
1148.56	22
1149.67	27
1150.78	28
1151.89	32
1153	30
1154.1	26
1155.21	24
1156.32	33
1157.43	28
1158.53	30
1159.64	30
1160.75	30
1161.85	31
1162.96	32
1164.07	30
1165.17	26
1166.28	31
1167.38	29
1168.49	32
1169.59	29
1170.7	29
1171.8	26
1172.91	30
1174.01	26
1175.12	22
1176.22	32
1177.32	28
1178.43	28
1179.53	20
1180.64	27
1181.74	27
1182.84	26
1183.94	27
1185.05	29
1186.15	33
1187.25	30
1188.35	26
1189.46	28
1190.56	28
1191.66	29
1192.76	24
1193.86	26
1194.96	29
1196.06	30
1197.16	28.9649
1198.26	26.047
1199.37	24.2021
1200.47	27.9228
1201.57	29.8529
1202.67	26.0135
1203.77	27.6718
1204.86	29.3229
1205.96	26.0302
1207.06	26.0805
1208.16	25.6073
1209.26	29.5185
1210.36	26.3299
1211.46	27.857
1212.56	26.848
1213.65	29.034
1214.75	24.8199
1215.85	25.6488
1216.95	22.1833
1218.04	24.3812
1219.14	32.6365
1220.24	29.6453
1221.33	29.1533
1222.43	24.7162
1223.53	23.3379
1224.62	24.7207
1225.72	26.9216
1226.82	28.5671
1227.91	26.5861
1229.01	26.657
1230.1	27.5209
1231.2	31.416
1232.29	27.7953
1233.39	28.306
1234.48	25.0301
1235.58	27.4999
1236.67	28.279
1237.77	27.8816
1238.86	26.3737
1239.95	28.7169
1241.05	27.5734
1242.14	29.3253
1243.23	30.7286
1244.33	27.7739
1245.42	26.4653
1246.51	26.7913
1247.61	28.7779
1248.7	29.5178
1249.79	27.3235
1250.88	28.5119
1251.97	28.8026
1253.07	29.6126
1254.16	24.7191
1255.25	24.7238
1256.34	30.2714
1257.43	28.5594
1258.52	28.1421
1259.61	26.3275
1260.7	27.1673
1261.79	27.5931
1262.88	29.5235
1263.97	31.4385
1265.06	31.0724
1266.15	30.7353
1267.24	28.6278
1268.33	28.0472
1269.42	29.6866
1270.51	28.1286
1271.6	27.8868
1272.68	26.711
1273.77	23.8677
1274.86	25.6546
1275.95	29.9305
1277.04	23.9924
1278.12	24.1325
1279.21	29.3021
1280.3	29.7831
1281.39	26.0945
1282.47	28.7974
1283.56	28.1334
1284.65	25.8804
1285.73	26.9214
1286.82	24.0918
1287.91	27.5755
1288.99	29.5147
1290.08	28.8285
1291.16	28.3472
1292.25	31.49
1293.33	24.2552
1294.42	21.7393
1295.5	29
1296.59	27.9782
1297.67	24.3333
1298.76	24.1471
1299.84	24.2009
1300.92	26.5817
1302.01	31.4939
1303.09	27.35
1304.17	23.5289
1305.26	27.8667
1306.34	25.8355
1307.34	24
1308.43	25
1309.52	26
1310.61	31
1311.7	28
1312.78	24
1313.87	26
1314.96	26
1316.04	30
1317.13	29
1318.22	24
1319.3	28
1320.39	27
1321.48	29
1322.56	28
1323.65	28
1324.73	24
1325.82	25
1326.9	26
1327.99	29
1329.07	28
1330.16	29
1331.24	26
1332.33	28
1333.41	28
1334.5	32
1335.58	28
1336.66	26
1337.75	31
1338.83	24
1339.91	28
1341	28
1342.08	29
1343.16	26
1344.24	33
1345.33	26
1346.41	28
1347.49	31
1348.57	26
1349.65	28
1350.74	28
1351.82	28
1352.9	28
1353.98	27
1355.06	29
1356.14	28
1357.22	27
1358.3	24
1359.38	26
1360.46	28
1361.54	31
1362.62	30
1363.7	24
1364.78	28
1365.86	30
1366.94	24
1368.02	28
1369.09	28
1370.17	30
1371.25	25
1372.33	27
1373.41	29
1374.48	29
1375.56	28
1376.64	28
1377.72	28
1378.79	28
1379.87	30
1380.95	24
1382.02	28
1383.1	26
1384.17	25
1385.25	30
1386.33	29
1387.4	26
1388.48	30
1389.55	26
1390.63	28
1391.7	26
1392.78	28
1393.85	30
1394.93	36
1396	26
1397.07	30
1398.15	28
1399.22	33
1400.3	34
1401.37	31
1402.44	27
1403.52	28
1404.59	26
1405.66	36
1406.73	33
1407.81	40
1408.88	35
1409.95	26
1411.02	33
1412.09	28
1413.17	34
1414.24	34
1415.31	34
1416.38	40
1417.45	29
1418.52	32
1419.59	31
1420.66	28
1421.73	30
1422.8	36
1423.87	30
1424.94	28
1426.01	28
1427.08	30
1428.15	26
1429.22	32
1430.29	29
1431.35	30
1432.42	33
1433.49	26
1434.56	28
1435.63	26
1436.69	30
1437.76	31
1438.83	32
1439.9	28
1440.96	28
1442.03	30
1443.1	29
1444.17	26
1445.23	26
1446.3	30
1447.36	26
1448.43	30
1449.49	26
1450.56	28
1451.63	30
1452.69	32
1453.76	27
1454.82	24
1455.89	31
1456.95	28
1458.01	24
1459.08	29
1460.14	28
1461.21	31
1462.27	26
1463.34	29
1464.4	28
1465.46	26
1466.52	28
1467.59	32
1468.65	29
1469.71	22
1470.77	27
1471.84	30
1472.9	28
1473.96	22
1475.02	27
1476.08	27
1477.15	28
1478.21	28
1479.27	27
1480.33	31
1481.39	29
1482.45	30
1483.51	23
1484.57	29
1485.63	28
1486.69	25
1487.75	25
1488.81	32
1489.87	26
1490.93	28
1491.99	33
1493.05	28
1494.1	31
1495.16	28
1496.22	33
1497.28	28
1498.34	33
1499.4	29
1500.45	31
1501.51	27
1502.57	29
1503.63	24
1504.68	28
1505.74	28
1506.8	26
1507.85	30
1508.91	27
1509.97	33
1511.02	31
1512.08	30
1513.13	27
1514.19	24
1515.24	28
1516.3	23
1517.35	30
1518.41	28
1519.46	31
1520.52	33
1521.57	27
1522.63	28
1523.68	28
1524.73	30
1525.79	28
1526.84	29
1527.9	30
1528.95	28
1530	27
1531.05	26
1532.11	26
1533.16	30
1534.21	32
1535.26	30
1536.32	32
1537.37	29
1538.42	30
1539.47	29
1540.52	27
1541.57	26
1542.63	28
1543.68	29
1544.73	31
1545.78	31
1546.83	27
1547.88	30
1548.93	34
1549.98	26
1551.03	31
1552.08	32
1553.13	22
1554.18	28
1555.23	33
1556.27	21
1557.32	29
1558.37	28
1559.42	26
1560.47	24
1561.52	26
1562.56	33
1563.61	28
1564.66	28
1565.71	33
1566.75	28
1567.8	28
1568.85	32
1569.9	30
1570.94	25
1571.99	26
1573.03	33
1574.08	30
1575.13	30
1576.17	26
1577.22	30
1578.26	24
1579.31	28
1580.35	30
1581.4	25
1582.44	26
1583.49	27
1584.53	26
1585.58	27
1586.62	30
1587.66	32
1588.71	24
1589.75	31
1590.8	30
1591.84	29
1592.88	29
1593.92	32
1594.97	20
1596.01	29
1597.05	28
1598.1	31
1599.14	31
1600.18	29
1601.22	28
1602.26	24
1603.3	31
1604.35	26
1605.39	31
1606.43	32
1607.47	27
1608.51	27
1609.55	26
1610.59	30
1611.63	28
1612.67	28
1613.71	30
1614.75	27
1615.79	28
1616.83	29
1617.87	26
1618.91	32
1619.95	30
1620.99	28
1622.02	31
1623.06	32
1624.1	27
1625.14	24
1626.18	32
1627.21	30
1628.25	28
1629.29	27
1630.33	30
1631.36	28
1632.4	30
1633.44	29
1634.48	28
1635.51	29
1636.55	26
1637.58	28
1638.62	33
1639.66	28
1640.69	20
1641.73	28
1642.76	28
1643.8	28
1644.83	26
1645.87	30
1646.9	30
1647.94	25
1648.97	28
1650	31
1651.04	27
1652.07	27
1653.11	28
1654.14	27
1655.17	23
1656.21	27
1657.24	26
1658.27	28
1659.31	34
1660.34	28
1661.37	28
1662.4	30
1663.43	29
1664.47	33
1665.5	27
1666.53	29
1667.56	34
1668.59	32
1669.62	28
1670.66	24
1671.69	28
1672.72	28
1673.75	30
1674.78	27
1675.81	28
1676.84	31
1677.87	30
1678.9	32
1679.93	28
1680.96	22
1681.98	25
1683.01	26
1684.04	30
1685.07	28
1686.1	26
1687.13	28
1688.16	33
1689.18	28
1690.21	34
1691.24	30
1692.27	30
1693.3	24
1694.32	29
1695.35	30
1696.38	27
1697.4	30
1698.43	27
1699.46	26
1700.48	24
1701.51	30
1702.54	29
1703.56	26
1704.59	28
1705.61	28
1706.64	26
1707.66	27
1708.69	26
1709.71	30
1710.74	29
1711.76	25
1712.79	26
1713.81	30
1714.83	27
1715.86	27
1716.88	29
1717.91	37
1718.93	26
1719.95	33
1720.98	28
1722	27
1723.02	30
1724.04	30
1725.07	32
1726.09	27
1727.11	31
1728.13	26
1729.15	25
1730.18	27
1731.2	29
1732.22	26
1733.24	30
1734.26	26
1735.28	30
1736.3	28
1737.32	28
1738.34	28
1739.36	26
1740.38	29
1741.4	28
1742.42	29
1743.44	28
1744.46	28
1745.48	26
1746.5	28
1747.52	28
1748.54	22
1749.56	30
1750.58	26
1751.6	25
1752.61	26
1753.63	32
1754.65	31
1755.67	26
1756.68	33
1757.7	26
1758.72	28
1759.74	26
1760.75	31
1761.77	26
1762.79	31
1763.8	26
1764.82	31
1765.83	20
1766.85	28
1767.87	22
1768.88	26
1769.9	25
1770.91	28
1771.93	26
1772.94	29
1773.96	26
1774.97	24
1775.99	27
1777	29
1778.02	24
1779.03	30
1780.04	24
1781.06	30
1782.07	28
1783.09	30
1784.1	31
1785.11	29
1786.13	26
1787.14	32
1788.15	26
1789.16	29
1790.18	28
1791.19	36
1792.2	28
1793.21	28
1794.22	26
1795.23	26
1796.25	26
1797.26	27
1798.27	27
1799.28	28
1800.29	28
1801.3	26
1802.31	32
1803.32	30
1804.33	29
1805.34	26
1806.35	24
1807.36	28
1808.37	29
1809.38	20
1810.39	30
1811.4	26
1812.41	24
1813.42	28
1814.42	32
1815.43	27
1816.44	29
1817.45	26
1818.46	27
1819.47	26
1820.47	30
1821.48	32
1822.49	28
1823.49	24
1824.5	26
1825.51	25
1826.52	28
1827.52	29
1828.53	26
1829.53	22
1830.54	28
1831.55	28
1832.55	22
1833.56	28
1834.56	27
1835.57	30
1836.57	26
1837.58	28
1838.58	28
1839.59	28
1840.59	26
1841.6	26
1842.6	27
1843.61	28
1844.61	26
1845.61	28
1846.62	28
1847.62	28
1848.62	24
1849.63	26
1850.63	28
1851.63	28
1852.64	30
1853.64	29
1854.64	26
1855.64	27
1856.64	32
1857.65	28
1858.65	24
1859.65	25
1860.65	32
1861.65	26
1862.65	30
1863.65	28
1864.66	27
1865.66	28
1866.66	28
1867.66	28
1868.66	24
1869.66	25
1870.66	26
1871.66	28
1872.66	28
1873.66	27
1874.66	22
1875.65	27
1876.65	28
1877.65	27
1878.65	29
1879.65	25
1880.65	26
1881.65	27
1882.64	28
1883.64	26
1884.64	25
1885.64	26
1886.63	29
1887.63	29
1888.63	29
1889.63	32
1890.62	27
1891.62	28
1892.62	28
1893.61	30
1894.61	24
1895.6	28
1896.6	28
1897.6	24
1898.59	24
1899.59	27
1900.58	30
1901.58	31
1902.57	33
1903.57	26
1904.56	30
1905.56	28
1906.55	24
1907.54	28
1908.54	28
1909.53	26
1910.53	28
1911.52	32
1912.51	25
1913.51	22
1914.5	24
1915.49	27
1916.49	30
1917.48	25
1918.47	30
1919.46	25
1920.46	28
1921.45	33
1922.44	20
1923.43	30
1924.42	32
1925.41	28
1926.41	26
1927.4	27
1928.39	26
1929.38	24
1930.37	27
1931.36	34
1932.35	27
1933.34	26
1934.33	26
1935.32	25
1936.31	26
1937.3	30
1938.29	30
1939.28	26
1940.27	27
1941.26	25
1942.24	31
1943.23	30
1944.22	24
1945.21	30
1946.2	28
1947.19	26
1948.17	29
1949.16	26
1950.15	28
1951.14	29
1952.12	28
1953.11	27
1954.1	34
1955.09	27
1956.07	26
1957.06	22
1958.05	29
1959.03	26
1960.02	28
1961	25
1961.99	28
1962.98	20
1963.96	18
1964.95	30
1965.93	29
1966.92	28
1967.9	30
1968.89	29
1969.87	21
1970.85	27
1971.84	28
1972.82	30
1973.81	26
1974.79	26
1975.78	25
1976.76	30
1977.74	23
1978.73	32
1979.71	23
1980.69	30
1981.67	28
1982.66	36
1983.64	28
1984.62	26
1985.6	23
1986.59	27
1987.57	28
1988.55	30
1989.53	26
1990.51	28
1991.49	25
1992.47	30
1993.45	26
1994.44	29
1995.42	26
1996.4	22
1997.38	28
1998.36	28
1999.34	30
2000.32	27
2001.3	24
2002.28	27
2003.26	26
2004.24	26
2005.22	25
2006.19	26
2007.17	29
2008.15	25
2009.13	28
2010.11	29
2011.09	30
2012.06	31
2013.04	25
2014.02	26
2015	30
2015.98	27
2016.95	27
2017.93	26
2018.91	28
2019.88	26
2020.86	22
2021.84	26
2022.81	24
2023.79	30
2024.77	27
2025.74	26
2026.72	22
2027.69	28
2028.67	23
2029.65	22
2030.62	26
2031.6	26
2032.57	31
2033.55	28
2034.52	31
2035.5	22
2036.47	28
2037.44	28
2038.42	31
2039.39	27
2040.36	24
2041.34	26
2042.31	26
2043.29	27
2044.26	26
2045.23	27
2046.2	23
2047.18	26
2048.15	24
2049.12	27
2050.09	27
2051.07	27
2052.04	24
2053.01	28
2053.98	29
2054.95	27
2055.93	26
2056.9	28
2057.87	27
2058.84	32
2059.81	24
2060.78	26
2061.75	27
2062.72	16
2063.69	27
2064.66	25
2065.63	26
2066.6	25
2067.57	30
2068.54	26
2069.51	30
2070.48	29
2071.45	29
2072.42	20
2073.38	25
2074.35	21
2075.32	30
2076.29	25
2077.26	27
2078.23	26
2079.19	28
2080.16	28
2081.13	24
2082.1	29
2083.06	24
2084.03	25
2085	27
2085.96	26
2086.93	32
2087.9	26
2088.86	30
2089.83	27
2090.8	20
2091.76	25
2092.73	26
2093.69	28
2094.66	26
2095.62	30
2096.59	18
2097.55	26
2098.52	30
2099.48	24
2100.45	26
2101.41	27
2102.38	30
2103.34	29
2104.31	27
2105.27	28
2106.23	28
2107.2	29
2108.16	23
2109.12	28
2110.09	24
2111.05	24
2112.01	26
2112.98	28
2113.94	32
2114.9	28
2115.86	23
2116.82	29
2117.79	29
2118.75	23
2119.71	25
2120.67	30
2121.63	22
2122.59	29
2123.55	28
2124.52	24
2125.48	26
2126.44	26
2127.4	22
2128.36	22
2129.32	26
2130.28	22
2131.24	27
2132.2	26
2133.16	26
2134.12	27
2135.08	30
2136.04	26
2136.99	31
2137.95	24
2138.91	24
2139.87	26
2140.83	26
2141.79	25
2142.75	24
2143.7	30
2144.66	22
2145.62	25.9921
2146.58	28.988
2147.53	28.0428
2148.49	26.0287
2149.45	25.9593
2150.41	22.2004
2151.36	22.9531
2152.32	25.9867
2153.27	25.7546
2154.23	25.8137
2155.19	28.4853
2156.14	25.7652
2157.1	27.2647
2158.06	23.7557
2159.01	26.1385
2159.97	22.5884
2160.92	25.0493
2161.88	26.3303
2162.83	25.0964
2163.79	23.1912
2164.74	25.9981
2165.7	26.7433
2166.65	26.6398
2167.61	30.4058
2168.56	20.0298
2169.51	26.9704
2170.47	23.7491
2171.42	26.652
2172.38	29.1115
2173.33	26.4503
2174.28	24.7173
2175.24	25.0921
2176.19	23.2123
2177.14	25.0229
2178.09	24.9643
2179.05	27.6409
2180	27.4013
2180.95	26.1699
2181.9	26.0724
2182.86	27.4899
2183.81	21.9853
2184.76	27.2725
2185.71	23.0883
2186.66	25.9411
2187.61	24.8006
2188.57	23.3876
2189.52	24.7877
2190.47	25.7352
2191.42	22.951
2192.37	24.2058
2193.32	25.3421
2194.27	27.8127
2195.22	21.3165
2196.17	24.861
2197.12	27.1549
2198.07	27.0882
2199.02	25.7525
2199.97	23.09
2200.92	26.5344
2201.87	24.8055
2202.82	24.5285
2203.76	24.7696
2204.71	25.2683
2205.66	25.649
2206.61	28.5252
2207.56	22.993
2208.51	21.0441
2209.45	24.7076
2210.4	27.8371
2211.35	27.9149
2212.3	24.9772
2213.24	24.8244
2214.19	21.7537
2215.14	23.3667
2216.09	24.5392
2217.03	26.1069
2217.98	23.3373
2218.93	22.9608
2219.87	26.8424
2220.82	22.7935
2221.77	25.4958
2222.71	27.5465
2223.66	27.8088
2224.6	24.5326
2225.55	24.9618
2226.49	25.5957
2227.44	27.116
2228.38	27.9907
2229.33	25.5351
2230.27	25.4946
2231.22	21.4808
2232.16	21.6527
2233.11	26.2146
2234.05	27.6667
2235	27.2647
2235.94	25.6466
2236.88	20.5605
2237.83	24.0882
2238.77	27.9657
2239.71	26.8257
2240.66	27.1226
2241.6	25.6791
2242	24
2242.95	28
2243.9	25
2244.84	26
2245.79	26
2246.74	22
2247.69	22
2248.63	28
2249.58	27
2250.53	25
2251.47	22
2252.42	29
2253.37	24
2254.31	27
2255.26	24
2256.2	25
2257.15	28
2258.1	24
2259.04	24
2259.99	28
2260.93	26
2261.88	27
2262.82	21
2263.77	24
2264.71	26
2265.65	24
2266.6	31
2267.54	26
2268.49	32
2269.43	27
2270.38	24
2271.32	27
2272.26	28
2273.21	28
2274.15	26
2275.09	22
2276.04	24
2276.98	26
2277.92	30
2278.86	21
2279.81	24
2280.75	22
2281.69	26
2282.63	31
2283.57	22
2284.52	28
2285.46	25
2286.4	24
2287.34	22
2288.28	24
2289.22	25
2290.16	26
2291.1	24
2292.04	22
2292.98	24
2293.93	25
2294.86	26
2295.8	29
2296.74	21
2297.69	30
2298.62	16
2299.56	24
2300.5	27
2301.44	22
2302.38	27
2303.32	28
2304.26	26
2305.2	27
2306.14	24
2307.07	28
2308.01	26
2308.95	24
2309.89	24
2310.83	26
2311.76	21
2312.7	22
2313.64	29
2314.58	29
2315.51	22
2316.45	28
2317.39	29
2318.32	28
2319.26	27
2320.2	26
2321.13	23
2322.07	31
2323	28
2323.94	26
2324.88	24
2325.81	22
2326.75	18
2327.68	27
2328.62	29
2329.55	22
2330.49	24
2331.42	26
2332.36	23
2333.29	28
2334.22	29
2335.16	26
2336.09	27
2337.03	26
2337.96	31
2338.89	23
2339.83	26
2340.76	22
2341.69	24
2342.63	27
2343.56	25
2344.49	23
2345.43	26
2346.36	26
2347.29	28
2348.22	24
2349.15	28
2350.09	31
2351.02	26
2351.95	24
2352.88	26
2353.81	24
2354.74	24
2355.67	26
2356.61	22
2357.54	22
2358.47	30
2359.4	29
2360.33	23
2361.26	28
2362.19	25
2363.12	20
2364.05	27
2364.98	24
2365.91	22
2366.84	34
2367.77	28
2368.7	27
2369.62	27
2370.55	29
2371.48	25
2372.41	30
2373.34	26
2374.27	30
2375.2	22
2376.12	24
2377.05	28
2377.98	24
2378.91	22
2379.83	25
2380.76	28
2381.69	22
2382.62	30
2383.54	29
2384.47	30
2385.4	24
2386.32	23
2387.25	27
2388.18	29
2389.1	28
2390.03	26
2390.95	27
2391.88	28
2392.81	26
2393.73	23
2394.66	24
2395.58	25
2396.51	28
2397.43	24
2398.36	28
2399.28	24
2400.2	26
2401.13	29
2402.05	22
2402.98	33
2403.9	25
2404.83	32
2405.75	24
2406.67	32
2407.6	24
2408.52	30
2409.44	27
2410.37	28
2411.29	28
2412.21	26
2413.13	25
2414.06	28
2414.98	28
2415.9	28
2416.82	26
2417.74	27
2418.67	29
2419.59	26
2420.51	32
2421.43	26
2422.35	23
2423.27	29
2424.19	26
2425.11	33
2426.03	22
2426.96	28
2427.88	29
2428.8	24
2429.72	27
2430.64	26
2431.56	20
2432.48	24
2433.39	26
2434.31	27
2435.23	24
2436.15	24
2437.07	26
2437.99	31
2438.91	25
2439.83	28
2440.75	27
2441.67	26
2442.58	29
2443.5	22
2444.42	28
2445.34	24
2446.26	30
2447.17	28
2448.09	26
2449.01	24
2449.92	25
2450.84	28
2451.76	26
2452.68	27
2453.59	25
2454.51	24
2455.42	30
2456.34	26
2457.26	30
2458.17	26
2459.09	26
2460	24
2460.92	28
2461.83	27
2462.75	29
2463.66	24
2464.58	18
2465.49	29
2466.41	28
2467.32	24
2468.24	34
2469.15	22
2470.07	28
2470.98	24
2471.89	22
2472.81	30
2473.72	20
2474.64	28
2475.55	26
2476.46	23
2477.37	24
2478.29	28
2479.2	31
2480.11	26
2481.03	23
2481.94	26
2482.85	28
2483.76	25
2484.67	29
2485.59	24
2486.5	32
2487.41	28
2488.32	31
2489.23	25
2490.14	24
2491.05	30
2491.97	28
2492.88	30
2493.79	28
2494.7	25
2495.61	29
2496.52	27
2497.43	28
2498.34	27
2499.25	30
2500.16	27
2501.07	32
2501.98	26
2502.89	28
2503.79	24
2504.7	32
2505.61	26
2506.52	27
2507.43	18
2508.34	28
2509.25	32
2510.16	27
2511.06	22
2511.97	25
2512.88	29
2513.79	30
2514.69	27
2515.6	26
2516.51	23
2517.42	29
2518.32	28
2519.23	27
2520.14	30
2521.04	25
2521.95	24
2522.86	26
2523.76	26
2524.67	27
2525.57	31
2526.48	22
2527.39	27
2528.29	27
2529.2	31
2530.1	22
2531.01	33
2531.91	31
2532.82	24
2533.72	27
2534.63	25
2535.53	31
2536.44	24
2537.34	28
2538.24	26
2539.15	27
2540.05	24
2540.96	28
2541.86	24
2542.76	28
2543.67	25
2544.57	27
2545.47	27
2546.37	27
2547.28	30
2548.18	24
2549.08	28
2549.99	28
2550.89	26
2551.79	28
2552.69	24
2553.59	30
2554.49	30
2555.4	32
2556.3	27
2557.2	28
2558.1	26
2559	25
2559.9	26
2560.8	29
2561.7	25
2562.6	31
2563.5	28
2564.4	23
2565.3	26
2566.2	28
2567.1	22
2568	27
2568.9	28
2569.8	20
2570.7	30
2571.6	24
2572.5	27
2573.4	22
2574.3	28
2575.2	30
2576.1	27
2576.99	27
2577.89	31
2578.79	22
2579.69	26
2580.59	26
2581.48	29
2582.38	28
2583.28	26
2584.18	24
2585.07	26
2585.97	25
2586.87	29
2587.76	25
2588.66	26
2589.56	29
2590.45	28
2591.35	28
2592.25	24
2593.14	26
2594.04	30
2594.93	28
2595.83	22
2596.73	24
2597.62	24
2598.52	27
2599.41	28
2600.31	27
2601.2	28
2602.1	31
2602.99	30
2603.88	26
2604.78	24
2605.67	28
2606.57	31
2607.46	28
2608.35	26
2609.25	20
2610.14	26
2611.03	27
2611.93	30
2612.82	26
2613.71	30
2614.61	26
2615.5	27
2616.39	27
2617.29	24
2618.18	26
2619.07	27
2619.96	29
2620.85	26
2621.75	23
2622.64	25
2623.53	30
2624.42	27
2625.31	28
2626.2	28
2627.09	30
2627.98	27
2628.88	30
2629.77	26
2630.66	28
2631.55	25
2632.44	26
2633.33	30
2634.22	28
2635.11	30
2636	27
2636.89	26
2637.78	25
2638.66	30
2639.55	25
2640.44	32
2641.33	25
2642.22	29
2643.11	23
2644	26
2644.89	26
2645.78	28
2646.66	28
2647.55	32
2648.44	25
2649.33	20
2650.21	29
2651.1	26
2651.99	32
2652.88	34
2653.76	29
2654.65	29
2655.54	28
2656.42	28
2657.31	26
2658.2	22
2659.08	25
2659.97	27
2660.86	27
2661.74	28
2662.63	30
2663.51	24
2664.4	24
2665.29	24
2666.17	31
2667.06	32
2667.94	29
2668.83	25
2669.71	26
2670.6	26
2671.48	24
2672.36	25
2673.25	27
2674.13	30
2675.02	26
2675.9	29
2676.78	27
2677.67	33
2678.55	26
2679.43	26
2680.32	27
2681.2	30
2682.08	26
2682.97	32
2683.85	32
2684.73	29
2685.61	29
2686.5	31
2687.38	26
2688.26	34
2689.14	21
2690.03	26
2690.91	26
2691.79	26
2692.67	22
2693.55	24
2694.43	25
2695.31	31
2696.19	23
2697.08	33
2697.96	32
2698.84	28
2699.72	30
2700.6	25
2701.48	28
2702.36	27
2703.24	26
2704.12	26
2705	28
2705.88	33
2706.76	28
2707.64	29
2708.51	22
2709.39	30
2710.27	31
2711.15	22
2712.03	26
2712.91	23
2713.79	28
2714.67	26
2715.54	28
2716.42	26
2717.3	30
2718.18	31
2719.05	26
2719.93	30
2720.81	29
2721.69	30
2722.56	30
2723.44	28
2724.32	26
2725.19	24
2726.07	25
2726.95	26
2727.82	24
2728.7	27
2729.58	27
2730.45	30
2731.33	26
2732.2	30
2733.08	26
2733.95	30
2734.83	28
2735.7	31
2736.58	25
2737.45	30
2738.33	28
2739.2	26
2740.08	26
2740.95	28
2741.83	29
2742.7	25
2743.58	24
2744.45	25
2745.32	29
2746.2	32
2747.07	26
2747.94	31
2748.82	28
2749.69	29
2750.56	26
2751.44	28
2752.31	28
2753.18	27
2754.05	29
2754.93	26
2755.8	26
2756.67	26
2757.54	25
2758.42	32
2759.29	29
2760.16	25
2761.03	24
2761.9	22
2762.77	26
2763.64	23
2764.51	25
2765.38	26
2766.26	30
2767.13	28
2768	31
2768.87	32
2769.74	26
2770.61	26
2771.48	28
2772.35	31
2773.22	26
2774.09	29
2774.96	26
2775.83	29
2776.7	32
2777.56	30
2778.43	27
2779.3	28
2780.17	28
2781.04	27
2781.91	29
2782.78	30
2783.64	27
2784.51	23
2785.38	25
2786.25	26
2787.12	30
2787.98	30
2788.85	29
2789.72	24
2790.59	26
2791.45	29
2792.32	28
2793.19	30
2794.05	30
2794.92	32
2795.79	26
2796.65	28
2797.52	28
2798.38	30
2799.25	29
2800.12	22
2800.98	27
2801.85	22
2802.71	33
2803.58	31.5
2804.44	30
2805.31	28
2806.17	26
2807.04	30
2807.9	33
2808.77	24
2809.63	30
2810.5	26
2811.36	26
2812.22	31
2813.09	26
2813.95	30
2814.82	28
2815.68	28
2816.54	26
2817.41	24
2818.27	32
2819.13	34
2820	30
2820.86	27
2821.72	32
2822.58	29
2823.45	28
2824.31	29
2825.17	26
2826.03	25
2826.9	25
2827.76	25
2828.62	26
2829.48	28
2830.34	29
2831.2	28
2832.06	27
2832.92	28
2833.79	28
2834.65	31
2835.51	24
2836.37	28
2837.23	26
2838.09	32
2838.95	31
2839.81	26
2840.67	31
2841.53	30
2842.39	32
2843.25	28
2844.11	24
2844.97	30
2845.83	29
2846.68	29
2847.54	23
2848.4	30
2849.26	29
2850.12	28
2850.98	32
2851.84	29
2852.69	30
2853.55	31
2854.41	26
2855.27	30
2856.13	30
2856.98	26
2857.84	32
2858.7	25
2859.56	29
2860.41	27
2861.27	34
2862.13	30
2862.98	32
2863.84	31
2864.7	29
2865.55	27
2866.41	32
2867.27	34
2868.12	30
2868.98	30
2869.83	30
2870.69	30
2871.54	24
2872.4	32
2873.25	31
2874.11	30
2874.96	32
2875.82	33
2876.68	31
2877.53	33
2878.38	31
2879.24	30
2880.09	34
2880.95	39
2881.8	31
2882.65	35
2883.51	30
2884.36	28
2885.22	33
2886.07	36
2886.92	37
2887.77	30
2888.63	35
2889.48	38
2890.33	37
2891.19	40
2892.04	36
2892.89	36
2893.74	40
2894.6	40
2895.45	47
2896.3	50
2897.15	52
2898	52
2898.85	48
2899.71	59
2900.56	53
2901.41	58
2902.26	61
2903.11	60
2903.96	64
2904.81	57
2905.66	62
2906.51	70
2907.36	67
2908.21	52
2909.06	64
2909.91	54
2910.76	56
2911.61	62
2912.46	54
2913.31	57
2914.16	49
2915.01	48
2915.86	46
2916.71	44
2917.56	39
2918.41	42
2919.26	32
2920.1	39
2920.95	38
2921.8	36
2922.65	34
2923.5	36
2924.34	30
2925.19	32
2926.04	32
2926.89	35
2927.74	26
2928.58	32
2929.43	33
2930.28	26
2931.12	31
2931.97	37
2932.82	26
2933.66	26
2934.51	28
2935.36	30
2936.2	29
2937.05	32
2937.89	27
2938.74	30
2939.59	33
2940.43	26
2941.28	32
2942.12	28
2942.97	35
2943.81	31
2944.66	32
2945.5	29
2946.35	30
2947.19	29
2948.04	34
2948.88	32
2949.72	33
2950.57	30
2951.41	30
2952.26	27
2953.1	30
2953.94	35
2954.79	35
2955.63	29
2956.47	34
2957.32	35
2958.16	36
2959	42
2959.85	40
2960.69	34
2961.53	44
2962.37	42
2963.22	42
2964.06	41
2964.9	38
2965.74	47
2966.58	40
2967.42	43
2968.27	39
2969.11	40
2969.95	42
2970.79	42
2971.63	39
2972.47	39
2973.31	33
2974.15	38
2974.99	36
2975.83	32
2976.68	35
2977.52	30
2978.36	32
2979.2	37
2980.04	27
2980.88	33
2981.71	27
2982.55	29
2983.39	29
2984.23	29
2985.07	28
2985.91	32
2986.75	26
2987.59	28
2988.43	32
2989.27	29
2990.1	30
2990.94	33
2991.78	31
2992.62	28
2993.46	25
2994.3	32
2995.13	24
2995.97	30
2996.81	24
2997.64	31
2998.48	28
2999.32	26
