#Acq. time (s)=	3
#Accumulations=	3
#Range (cm-¹)=	100...3000
#Windows=	3
#Autofocus=	Off
#AutoExposure=	Off
#Spike filter=	Multiple accum.
#Delay time (s)=	0
#Binning=	1
#Readout mode=	Signal
#DeNoise=	Off
#ICS correction=	Off
#Dark correction=	Off
#Inst. Process=	Off
#Instrument=	LabRAM HR Evol
#Detector=	Syncerity OE
#Objective=	x100_VIS_LWD
#Grating=	600 (500nm)
#ND Filter=	25%
#Laser=	633nm_Edge
#Hole=	100.021
#Range=	Visible
#Project=	Bolus
#Sample=	B2
#Site=	stripside
#Title=	m15
#Remark=	
#Date=	03.11.2025 18:02
#Acquired=	03.11.2025 18:02:07
100.969	26
102.252	37
103.535	32
104.818	32
106.101	30
107.384	33
108.666	30
109.948	32
111.232	33
112.514	31
113.795	34
115.077	30
116.358	38
117.639	34
118.919	33
120.2	34
121.48	30
122.76	26
124.04	38
125.32	30
126.599	37
127.879	34
129.158	32
130.436	40
131.715	32
132.992	40
134.27	34
135.548	33
136.826	32
138.104	36
139.381	36
140.658	34
141.935	40
143.212	40
144.489	36
145.763	40
147.04	34
148.315	38
149.591	36
150.867	36
152.142	41
153.416	38
154.691	46
155.965	42
157.24	40
158.514	42
159.786	41
161.06	36
162.334	44
163.607	44
164.881	45
166.152	35
167.425	38
168.698	32
169.969	38
171.241	38
172.513	40
173.785	35
175.055	40
176.326	38
177.597	38
178.867	36
180.137	36
181.408	39
182.677	38
183.947	40
185.217	40
186.485	41
187.755	40
189.022	40
190.291	46
191.56	32
192.828	41
194.096	36
195.363	43
196.631	40
197.899	32
199.165	37
200.432	32
201.698	38
202.965	38
204.23	35
205.497	36
206.762	29
208.028	36
209.293	30
210.559	40
211.823	36
213.088	30
214.352	32
215.617	33
216.88	28
218.145	35
219.408	34
220.672	35
221.934	34
223.196	38
224.46	34
225.722	30
226.985	30
228.246	30
229.508	31
230.77	39
232.031	34
233.292	30
234.554	26
235.814	36
237.074	32
238.335	35
239.595	29
240.854	36
242.115	27
243.374	34
244.633	35
245.893	31
247.151	34
248.409	28
249.667	30
250.927	30
252.184	28
253.442	30
254.699	34
255.957	40
257.214	34
258.47	35
259.727	29
260.983	24
262.24	30
263.496	31
264.752	31
266.007	34
267.262	36
268.517	28
269.773	30
271.028	33
272.282	32
273.536	32
274.79	31
276.044	32
277.297	27
278.551	30
279.804	31
281.057	30
282.31	31
283.564	28
284.816	29
286.068	26
287.32	28
288.572	31
289.823	34
291.074	30
292.325	28
293.576	30
294.827	30
296.077	30
297.328	30
298.578	32
299.828	26
301.077	32
302.325	27
303.575	32
304.824	34
306.073	33
307.321	34
308.57	30
309.818	26
311.066	22
312.314	32
313.562	32
314.808	30
316.055	30
317.302	27
318.549	34
319.796	33
321.042	36
322.288	30
323.533	28
324.779	38
326.024	34
327.27	30
328.515	29
329.759	29
331.004	26
332.248	32
333.493	28
334.736	28
335.98	31
337.223	34
338.466	29
339.709	30
340.952	24
342.195	29
343.437	30
344.68	27
345.922	24
347.163	29
348.405	28
349.647	32
350.887	33
352.128	31
353.37	32
354.609	35
355.85	33
357.089	34
358.33	28
359.57	34
360.809	26
362.049	31
363.287	34
364.526	28
365.764	28
367.003	36
368.241	24
369.479	28
370.718	30
371.955	34
373.193	30
374.429	33
375.667	33
376.903	32
378.139	34
379.376	31
380.611	36
381.848	28
383.083	29
384.319	25
385.554	30
386.79	28
388.024	28
389.258	36
390.493	28
391.727	28
392.962	28
394.195	33
395.428	29
396.663	31
397.895	30
399.128	30
400.361	31
401.593	27
402.825	28
404.058	26
405.29	26
406.521	29
407.752	30
408.985	31
410.215	31
411.446	31
412.678	31
413.908	31
415.138	34
416.367	30
417.597	30
418.828	28
420.057	34
421.286	33
422.514	29
423.743	28
424.973	33
426.201	30
427.429	33
428.657	28
429.884	28
431.112	34
432.34	35
433.567	35
434.794	29
436.02	31
437.247	30
438.473	32
439.699	35
440.925	28
442.15	32
443.376	24
444.601	30
445.826	30
447.051	32
448.275	30
449.5	34
450.724	28
451.948	38
453.172	29
454.396	32
455.619	35
456.842	30
458.065	32
459.288	30
460.511	28
461.733	30
462.956	33
464.178	30
465.4	32
466.621	36
467.843	32
469.064	31
470.285	34
471.505	37
472.726	36
473.946	37
475.166	40
476.387	37
477.606	34
478.825	42
480.044	44
481.264	40
482.483	47
483.702	48
484.921	50
486.138	50
487.356	49
488.574	54
489.792	54
491.009	60
492.226	51
493.444	48
494.661	48
495.877	49
497.094	49
498.31	41
499.525	48
500.741	42
501.958	40
503.172	40
504.388	44
505.603	46
506.817	36
508.032	36
509.247	38
510.46	37
511.675	35
512.888	38
514.102	26
515.316	38
516.528	36
517.742	36
518.954	30
520.167	31
521.378	35
522.591	30
523.802	32
525.015	36
526.226	30
527.438	34
528.648	38
529.86	30
531.07	35
532.281	34
533.491	35
534.702	26
535.911	26
537.121	31
538.33	30
539.54	32
540.749	31
541.957	36
543.167	31
544.375	30
545.584	33
546.791	30
547.999	34
549.207	33
550.414	34
551.621	24
552.829	34
554.035	32
555.241	30
556.449	30
557.655	32
558.86	30
560.066	29
561.272	32
562.477	28
563.682	34
564.888	28
566.093	30
567.297	30
568.501	31
569.705	30
570.91	32
572.114	28
573.317	30
574.52	35
575.723	36
576.927	29
578.13	34
579.332	29
580.535	32
581.737	33
582.938	30
584.14	32
585.343	30
586.544	30
587.745	30
588.946	31
590.147	32
591.347	38
592.548	29
593.748	32
594.948	34
596.147	30
597.347	30
598.546	30
599.745	31
600.944	32
602.143	32
603.342	32
604.54	32
605.738	26
606.937	34
608.134	36
609.332	33
610.529	28
611.727	28
612.924	30
614.121	31
615.317	35
616.513	28
617.709	34
618.905	30
620.101	35
621.297	31
622.492	26
623.688	32
624.883	31
626.077	31
627.271	33
628.466	35
629.66	29
630.855	33
632.047	29
633.241	28
634.435	32
635.629	30
636.82	30
638.014	26
639.207	28
640.399	32
641.59	28
642.783	34
643.975	30
645.166	28
646.357	30
647.549	25
648.741	26
649.93	30
651.122	29
652.311	31
653.502	36
654.692	26
655.881	31
657.071	29
658.261	36
659.45	30
660.639	31
661.827	33
663.016	35
664.204	33
665.393	30
666.581	34
667.769	30
668.957	38
670.143	30
671.331	32
672.518	26
673.705	35
674.891	28
676.078	31
677.264	33
678.451	28
679.636	34
680.821	33
682.007	29
683.192	35
684.378	34
685.562	36
686.747	32
687.931	34
689.115	36
690.3	42
691.483	32
692.666	35
693.851	38
695.034	38
696.216	34
697.4	37
698.582	34
699.764	35
700.948	38
702.129	38
703.311	32
704.493	43
705.674	43
706.855	46
708.036	50
709.218	50
710.399	48
711.579	49
712.759	45
713.939	44
715.12	38
716.299	43
717.478	30
718.657	36
719.836	28
721.015	31
722.195	28
723.373	28
724.552	30
725.729	31
726.907	33
728.085	30
729.262	24
730.44	30
731.617	36
732.795	30
733.972	28
735.148	33
736.324	29
737.501	29
738.677	36
739.852	32
741.028	32
742.203	33
743.379	30
744.554	30
745.729	24
746.903	30
748.078	35
749.252	34
750.426	31
751.599	26
752.772	34
753.946	32
755.119	33
756.293	31
757.466	34
758.639	28
759.811	28
760.984	32
762.155	30
763.327	32
764.499	30
765.67	31
766.842	29
768.013	37
769.183	30
770.354	31
771.525	25
772.696	33
773.865	28
775.035	35
776.205	34
777.375	32
778.544	36
779.713	31
780.882	31
782.052	33
783.219	32
784.388	32
785.557	34
786.724	32
787.892	36
789.06	31
790.227	35
791.395	30
792.562	36
793.728	34
794.895	34
796.061	31
797.228	36
798.395	30
799.56	28
800.726	33
801.891	34
803.057	35
804.221	31
805.387	34
806.551	35
807.716	30
808.879	30
810.044	31
811.208	32
812.372	34
813.535	36
814.699	35
815.862	33
817.025	26
818.188	30
819.351	34
820.513	32
821.675	35
822.837	30
823.999	32
825.161	30
826.322	28
827.483	34
828.645	35
829.805	28
830.966	28
832.127	27
833.287	30
834.447	29
835.607	22
836.767	28
837.926	30
839.085	30
840.245	32
841.404	22
842.562	35
843.72	24
844.88	29
846.038	30
847.195	34
848.353	28
849.512	28
850.669	32
851.826	30
852.983	32
854.139	30
855.296	34
856.453	33
857.609	30
858.765	31
859.921	31
861.077	34
862.232	28
863.387	36
864.542	33
865.697	33
866.852	32
868.008	28
869.162	31
870.316	33
871.47	35
872.624	30
873.778	26
874.931	32
876.084	26
877.237	33
878.39	32
879.543	30
880.695	31
881.846	32
882.999	32
884.151	26
885.302	32
886.454	26
887.606	34
888.757	33
889.908	33
891.059	31
892.21	34
893.359	33
894.509	24
895.659	28
896.81	23
897.959	22
899.109	30
900.257	36
901.407	35
902.556	32
903.705	30
904.854	30
906.001	30
907.149	30
908.298	32
909.446	35
910.592	26
911.74	31
912.888	32
914.034	24
915.181	28
916.328	22
917.473	27
918.62	27
919.766	32
920.911	31
922.058	32
923.204	37
924.348	30
925.494	35
926.638	30
927.783	35
928.928	28
930.072	32
931.216	32
932.36	30
933.504	32
934.647	32
935.791	30
936.933	29
938.077	31
939.219	30
940.363	32
941.504	28
942.647	31
943.789	27
944.932	32
946.073	28
947.215	28
948.356	27
949.498	32
950.638	31
951.778	32
952.92	26
954.06	28
955.199	27
956.34	29
957.479	26
958.62	30
959.759	35
960.898	29
962.038	30
963.176	20
964.315	29
965.453	28
966.592	30
967.73	28
968.867	30
970.006	25
971.144	28
972.281	30
973.418	33
974.554	30
975.692	26
976.829	29
977.965	30
979.101	32
980.237	29
981.374	29
982.509	37
983.645	22
984.78	35
985.915	26
987.05	28
988.184	27
989.319	30
990.453	28
991.589	29
992.722	35
993.856	32
994.99	29
996.123	32
997.257	29
998.39	28
999.523	28
1000.66	30
1001.79	30
1002.92	29
1004.05	26
1005.18	31
1006.32	30
1007.45	24
1008.58	34
1009.71	32
1010.84	30
1011.97	29
1013.1	29
1014.23	28
1015.36	33
1016.49	24
1017.62	31
1018.75	31
1019.88	26
1021.01	24
1022.14	28
1023.27	30
1024.4	35
1025.53	29
1026.66	32
1027.79	29
1028.91	29
1030.04	26
1031.17	30
1032.3	29
1033.42	25
1034.55	28
1035.68	30
1036.81	32
1037.93	26
1039.06	28
1040.18	31
1041.31	23
1042.44	29
1043.56	26
1044.69	30
1045.81	26
1046.94	24
1048.06	31
1049.19	29
1050.31	28
1051.44	33
1052.56	31
1053.69	34
1054.81	31
1055.93	32
1057.06	30
1058.18	30
1059.3	30
1060.43	34
1061.55	27
1062.67	35
1063.79	28
1064.92	24
1066.04	31
1067.16	30
1068.28	32
1069.4	22
1070.52	27
1071.65	28
1072.77	32
1073.89	31
1075.01	28
1076.13	31
1077.25	28
1078.37	30
1079.49	28
1080.61	31
1081.73	31
1082.85	30
1083.97	31
1085.09	26
1086.2	32
1087.32	34
1088.44	28
1089.56	33
1090.68	22
1091.8	28
1092.91	27
1094.03	31
1095.15	28
1096.26	24
1097.38	28
1098.5	26
1099.61	30
1100.73	30
1101.85	28
1102.96	29
1104.08	28
1105.19	30
1106.31	34
1107.43	26
1108.54	18
1109.66	26
1110.77	30
1111.88	35
1113	31
1114.11	22
1115.23	30
1116.34	34
1117.46	31
1118.57	29
1119.68	29
1120.8	32
1121.91	30
1123.02	32
1124.13	30
1125.25	27
1126.36	29
1127.47	30
1128.58	24
1129.69	24
1130.8	29
1131.92	30
1133.03	22
1134.14	32
1135.25	26
1136.36	26
1137.47	31
1138.58	24
1139.69	27
1140.8	33
1141.91	23
1143.02	33
1144.13	26
1145.24	30
1146.35	33
1147.46	28
1148.56	26
1149.67	31
1150.78	30
1151.89	30
1153	23
1154.1	31
1155.21	26
1156.32	31
1157.43	33
1158.53	28
1159.64	29
1160.75	32
1161.85	25
1162.96	30
1164.07	26
1165.17	29
1166.28	25
1167.38	26
1168.49	32
1169.59	36
1170.7	30
1171.8	26
1172.91	34
1174.01	28
1175.12	28
1176.22	34
1177.32	28
1178.43	26
1179.53	20
1180.64	27
1181.74	31
1182.84	28
1183.94	32
1185.05	27
1186.15	32
1187.25	25
1188.35	28
1189.46	27
1190.56	30
1191.66	30
1192.76	28
1193.86	25
1194.96	24
1196.06	27.9951
1197.16	26.9585
1198.26	27.9626
1199.37	32.9733
1200.47	27.2118
1201.57	27.0147
1202.67	26.0397
1203.77	26.1471
1204.86	27.9557
1205.96	26.9509
1207.06	24.4207
1208.16	26.3344
1209.26	30.6324
1210.36	30.267
1211.46	24.5013
1212.56	28.2293
1213.65	27.7585
1214.75	29.4811
1215.85	26.2749
1216.95	30.2353
1218.04	28.2755
1219.14	31.0119
1220.24	25.8342
1221.33	27.4896
1222.43	25.5806
1223.53	27.9506
1224.62	28.6725
1225.72	25.8812
1226.82	28.4812
1227.91	28.9755
1229.01	27.3139
1230.1	28.0401
1231.2	27.9023
1232.29	25.8832
1233.39	27.0633
1234.48	30.3311
1235.58	28.2158
1236.67	25.4706
1237.77	25.8773
1238.86	26.8624
1239.95	26.3872
1241.05	24.6909
1242.14	28.4608
1243.23	31.1084
1244.33	27.6876
1245.42	26.3152
1246.51	26.8201
1247.61	26.2436
1248.7	30.098
1249.79	26.6471
1250.88	28.9958
1251.97	31.1823
1253.07	27.7987
1254.16	25.4162
1255.25	28.0686
1256.34	28.6689
1257.43	30.5686
1258.52	26.7304
1259.61	28.6674
1260.7	31.3322
1261.79	28.3325
1262.88	30.1941
1263.97	26.545
1265.06	28.2508
1266.15	27.7642
1267.24	28.3435
1268.33	27.0267
1269.42	32.2273
1270.51	26.4529
1271.6	28.3547
1272.68	25.7978
1273.77	27.2908
1274.86	27.4216
1275.95	28.775
1277.04	25.6978
1278.12	27.9058
1279.21	26.4064
1280.3	27.8422
1281.39	23.3648
1282.47	27.4945
1283.56	29.1569
1284.65	28.251
1285.73	28.8607
1286.82	27.5892
1287.91	25.5755
1288.99	28.1618
1290.08	28.326
1291.16	27.6632
1292.25	29.629
1293.33	26.2672
1294.42	26.6925
1295.5	28.4406
1296.59	26.0218
1297.67	29.7841
1298.76	28
1299.84	27.4707
1300.92	24.6683
1302.01	27.2856
1303.09	30.5418
1304.17	27.1352
1305.26	27.5855
1306.34	22.4162
1307.34	27
1308.43	28
1309.52	30
1310.61	24
1311.7	25
1312.78	29
1313.87	31
1314.96	27
1316.04	32
1317.13	28
1318.22	28
1319.3	24
1320.39	24
1321.48	26
1322.56	27
1323.65	28
1324.73	24
1325.82	28
1326.9	27
1327.99	29
1329.07	28
1330.16	27
1331.24	26
1332.33	24
1333.41	22
1334.5	25
1335.58	28
1336.66	30
1337.75	26
1338.83	26
1339.91	28
1341	22
1342.08	26
1343.16	25
1344.24	28
1345.33	26
1346.41	28
1347.49	26
1348.57	24
1349.65	27
1350.74	29
1351.82	30
1352.9	28
1353.98	26
1355.06	26
1356.14	31
1357.22	32
1358.3	25
1359.38	26
1360.46	26
1361.54	28
1362.62	30
1363.7	28
1364.78	24
1365.86	31
1366.94	25
1368.02	22
1369.09	26
1370.17	31
1371.25	28
1372.33	28
1373.41	31
1374.48	24
1375.56	28
1376.64	27
1377.72	22
1378.79	28
1379.87	27
1380.95	24
1382.02	29
1383.1	33
1384.17	25
1385.25	30
1386.33	25
1387.4	28
1388.48	33
1389.55	26
1390.63	30
1391.7	34
1392.78	31
1393.85	27
1394.93	28
1396	26
1397.07	30
1398.15	29
1399.22	30
1400.3	28
1401.37	32
1402.44	34
1403.52	31
1404.59	28
1405.66	32
1406.73	27
1407.81	35
1408.88	31
1409.95	34
1411.02	31
1412.09	32
1413.17	34
1414.24	35
1415.31	31
1416.38	37
1417.45	27
1418.52	26
1419.59	29
1420.66	34
1421.73	34
1422.8	24
1423.87	32
1424.94	26
1426.01	29
1427.08	30
1428.15	32
1429.22	28
1430.29	28
1431.35	31
1432.42	28
1433.49	28
1434.56	28
1435.63	30
1436.69	24
1437.76	29
1438.83	29
1439.9	30
1440.96	31
1442.03	28
1443.1	29
1444.17	24
1445.23	31
1446.3	25
1447.36	28
1448.43	32
1449.49	32
1450.56	31
1451.63	27
1452.69	26
1453.76	27
1454.82	34
1455.89	20
1456.95	30
1458.01	26
1459.08	31
1460.14	24
1461.21	28
1462.27	27
1463.34	26
1464.4	32
1465.46	30
1466.52	31
1467.59	29
1468.65	28
1469.71	26
1470.77	31
1471.84	24
1472.9	28
1473.96	28
1475.02	30
1476.08	27
1477.15	26
1478.21	30
1479.27	30
1480.33	24
1481.39	27
1482.45	35
1483.51	30
1484.57	30
1485.63	31
1486.69	30
1487.75	28
1488.81	30
1489.87	28
1490.93	29
1491.99	25
1493.05	30
1494.1	26
1495.16	29
1496.22	30
1497.28	31
1498.34	28
1499.4	30
1500.45	26
1501.51	25
1502.57	28
1503.63	27
1504.68	20
1505.74	28
1506.8	30
1507.85	26
1508.91	30
1509.97	26
1511.02	31
1512.08	29
1513.13	33
1514.19	30
1515.24	28
1516.3	33
1517.35	32
1518.41	29
1519.46	28
1520.52	25
1521.57	26
1522.63	29
1523.68	30
1524.73	29
1525.79	27
1526.84	32
1527.9	25
1528.95	28
1530	28
1531.05	29
1532.11	31
1533.16	33
1534.21	31
1535.26	29
1536.32	24
1537.37	34
1538.42	26
1539.47	28
1540.52	29
1541.57	26
1542.63	29
1543.68	26
1544.73	27
1545.78	30
1546.83	24
1547.88	32
1548.93	28
1549.98	32
1551.03	30
1552.08	32
1553.13	30
1554.18	27
1555.23	27
1556.27	30
1557.32	22
1558.37	28
1559.42	28
1560.47	22
1561.52	26
1562.56	28
1563.61	30
1564.66	29
1565.71	30
1566.75	29
1567.8	28
1568.85	27
1569.9	30
1570.94	31
1571.99	27
1573.03	26
1574.08	32
1575.13	28
1576.17	29
1577.22	20
1578.26	25
1579.31	26
1580.35	34
1581.4	25
1582.44	34
1583.49	30
1584.53	24
1585.58	28
1586.62	31
1587.66	30
1588.71	28
1589.75	32
1590.8	26
1591.84	22
1592.88	29
1593.92	30
1594.97	22
1596.01	26
1597.05	26
1598.1	31
1599.14	22
1600.18	29
1601.22	31
1602.26	31
1603.3	28
1604.35	30
1605.39	24
1606.43	27
1607.47	26
1608.51	31
1609.55	26
1610.59	34
1611.63	28
1612.67	27
1613.71	30
1614.75	31
1615.79	30
1616.83	26
1617.87	26
1618.91	28
1619.95	30
1620.99	25
1622.02	24
1623.06	31
1624.1	27
1625.14	32
1626.18	24
1627.21	32
1628.25	28
1629.29	27
1630.33	27
1631.36	28
1632.4	31
1633.44	25
1634.48	27
1635.51	26
1636.55	23
1637.58	30
1638.62	27
1639.66	26
1640.69	31
1641.73	29
1642.76	29
1643.8	27
1644.83	26
1645.87	30
1646.9	30
1647.94	29
1648.97	26
1650	27
1651.04	28
1652.07	30
1653.11	28
1654.14	28
1655.17	28
1656.21	27
1657.24	27
1658.27	28
1659.31	30
1660.34	35
1661.37	28
1662.4	32
1663.43	26
1664.47	26
1665.5	28
1666.53	26
1667.56	27
1668.59	29
1669.62	28
1670.66	24
1671.69	32
1672.72	26
1673.75	26
1674.78	29
1675.81	26
1676.84	23
1677.87	27
1678.9	32
1679.93	31
1680.96	30
1681.98	26
1683.01	31
1684.04	25
1685.07	28
1686.1	27
1687.13	24
1688.16	29
1689.18	29
1690.21	26
1691.24	32
1692.27	26
1693.3	30
1694.32	28
1695.35	28
1696.38	27
1697.4	31
1698.43	24
1699.46	26
1700.48	30
1701.51	31
1702.54	29
1703.56	25
1704.59	29
1705.61	28
1706.64	24
1707.66	24
1708.69	22
1709.71	31
1710.74	30
1711.76	28
1712.79	26
1713.81	26
1714.83	27
1715.86	28
1716.88	34
1717.91	22
1718.93	24
1719.95	28
1720.98	27
1722	29
1723.02	26
1724.04	29
1725.07	27
1726.09	26
1727.11	32
1728.13	30
1729.15	26
1730.18	29
1731.2	32
1732.22	29
1733.24	28
1734.26	30
1735.28	24
1736.3	26
1737.32	30
1738.34	29
1739.36	33
1740.38	26
1741.4	29
1742.42	28
1743.44	24
1744.46	24
1745.48	32
1746.5	25
1747.52	31
1748.54	31
1749.56	27
1750.58	26
1751.6	30
1752.61	30
1753.63	23
1754.65	28
1755.67	25
1756.68	27
1757.7	28
1758.72	29
1759.74	31
1760.75	29
1761.77	32
1762.79	24
1763.8	27
1764.82	24
1765.83	32
1766.85	26
1767.87	31
1768.88	32
1769.9	31
1770.91	32
1771.93	30
1772.94	28
1773.96	28
1774.97	30
1775.99	26
1777	30
1778.02	26
1779.03	32
1780.04	26
1781.06	31
1782.07	27
1783.09	31
1784.1	23
1785.11	24
1786.13	28
1787.14	31
1788.15	28
1789.16	28
1790.18	27
1791.19	28
1792.2	29
1793.21	28
1794.22	28
1795.23	28
1796.25	30
1797.26	30
1798.27	26
1799.28	27
1800.29	28
1801.3	26
1802.31	25
1803.32	30
1804.33	28
1805.34	25
1806.35	26
1807.36	28
1808.37	30
1809.38	29
1810.39	30
1811.4	28
1812.41	29
1813.42	28
1814.42	25
1815.43	28
1816.44	30
1817.45	28
1818.46	30
1819.47	26
1820.47	27
1821.48	30
1822.49	31
1823.49	27
1824.5	24
1825.51	27
1826.52	28
1827.52	27
1828.53	29
1829.53	32
1830.54	31
1831.55	24
1832.55	30
1833.56	28
1834.56	30
1835.57	28
1836.57	31
1837.58	30
1838.58	29
1839.59	31
1840.59	30
1841.6	31
1842.6	23
1843.61	32
1844.61	30
1845.61	28
1846.62	25
1847.62	26
1848.62	26
1849.63	26
1850.63	27
1851.63	27
1852.64	25
1853.64	24
1854.64	28
1855.64	24
1856.64	30
1857.65	31
1858.65	28
1859.65	31
1860.65	28
1861.65	26
1862.65	30
1863.65	29
1864.66	24
1865.66	27
1866.66	24
1867.66	24
1868.66	28
1869.66	26
1870.66	24
1871.66	25
1872.66	28
1873.66	29
1874.66	27
1875.65	27
1876.65	26
1877.65	30
1878.65	27
1879.65	30
1880.65	28
1881.65	26
1882.64	31
1883.64	28
1884.64	29
1885.64	30
1886.63	27
1887.63	24
1888.63	31
1889.63	28
1890.62	27
1891.62	34
1892.62	29
1893.61	26
1894.61	26
1895.6	26
1896.6	27
1897.6	28
1898.59	24
1899.59	28
1900.58	25
1901.58	31
1902.57	31
1903.57	22
1904.56	27
1905.56	22
1906.55	31
1907.54	29
1908.54	28
1909.53	31
1910.53	30
1911.52	26
1912.51	26
1913.51	30
1914.5	28
1915.49	26
1916.49	28
1917.48	29
1918.47	33
1919.46	27
1920.46	31
1921.45	28
1922.44	28
1923.43	32
1924.42	27
1925.41	25
1926.41	30
1927.4	20
1928.39	26
1929.38	28
1930.37	24
1931.36	24
1932.35	28
1933.34	25
1934.33	26
1935.32	28
1936.31	28
1937.3	23
1938.29	26
1939.28	30
1940.27	20
1941.26	26
1942.24	27
1943.23	29
1944.22	29
1945.21	29
1946.2	27
1947.19	26
1948.17	27
1949.16	28
1950.15	28.5
1951.14	28
1952.12	24
1953.11	26
1954.1	26
1955.09	28
1956.07	27
1957.06	26
1958.05	25
1959.03	28
1960.02	24
1961	20
1961.99	26
1962.98	28
1963.96	24
1964.95	24
1965.93	29
1966.92	26
1967.9	22
1968.89	22
1969.87	27
1970.85	32
1971.84	26
1972.82	32
1973.81	27
1974.79	22
1975.78	26
1976.76	30
1977.74	31
1978.73	28
1979.71	25
1980.69	27
1981.67	24
1982.66	29
1983.64	26
1984.62	25
1985.6	32
1986.59	18
1987.57	32
1988.55	24
1989.53	26
1990.51	27
1991.49	30
1992.47	26
1993.45	25
1994.44	27
1995.42	22
1996.4	28
1997.38	27
1998.36	30
1999.34	31
2000.32	30
2001.3	30
2002.28	26
2003.26	28
2004.24	26
2005.22	23
2006.19	26
2007.17	29
2008.15	30
2009.13	24
2010.11	24
2011.09	23
2012.06	25
2013.04	25
2014.02	27
2015	27
2015.98	31
2016.95	28
2017.93	24
2018.91	28
2019.88	26
2020.86	24
2021.84	25
2022.81	18
2023.79	28
2024.77	29
2025.74	28
2026.72	28
2027.69	27
2028.67	28
2029.65	24
2030.62	29
2031.6	26
2032.57	29
2033.55	26
2034.52	31
2035.5	22
2036.47	34
2037.44	24
2038.42	31
2039.39	28
2040.36	25
2041.34	27
2042.31	26
2043.29	30
2044.26	25
2045.23	27
2046.2	24
2047.18	30
2048.15	29
2049.12	28
2050.09	26
2051.07	26
2052.04	26
2053.01	28
2053.98	30
2054.95	26
2055.93	30
2056.9	22
2057.87	22
2058.84	25
2059.81	29
2060.78	26
2061.75	24
2062.72	26
2063.69	26
2064.66	28
2065.63	29
2066.6	22
2067.57	30
2068.54	26
2069.51	24
2070.48	28
2071.45	25
2072.42	25
2073.38	24
2074.35	24
2075.32	30
2076.29	26
2077.26	24
2078.23	28
2079.19	20
2080.16	28
2081.13	24
2082.1	26
2083.06	29
2084.03	26
2085	22
2085.96	26
2086.93	28
2087.9	25
2088.86	28
2089.83	28
2090.8	27
2091.76	27
2092.73	25
2093.69	27
2094.66	29
2095.62	28
2096.59	22
2097.55	32
2098.52	24
2099.48	26
2100.45	23
2101.41	25
2102.38	28
2103.34	28
2104.31	22
2105.27	25
2106.23	28
2107.2	28
2108.16	20
2109.12	28
2110.09	26
2111.05	25
2112.01	28
2112.98	26
2113.94	26
2114.9	26
2115.86	24
2116.82	26
2117.79	29
2118.75	30
2119.71	28
2120.67	28
2121.63	30
2122.59	26
2123.55	24
2124.52	30
2125.48	29
2126.44	22
2127.4	27
2128.36	28
2129.32	29
2130.28	27
2131.24	33
2132.2	29
2133.16	26
2134.12	20
2135.08	26
2136.04	29
2136.99	28
2137.95	26
2138.91	26
2139.87	26
2140.83	26
2141.79	28
2142.75	26
2143.7	27
2144.66	24
2145.62	25.9972
2146.58	28.8784
2147.53	27.0203
2148.49	23.1169
2149.45	25.2478
2150.41	29.792
2151.36	22.3697
2152.32	24.0691
2153.27	27.6435
2154.23	27.1957
2155.19	28.6817
2156.14	27.5677
2157.1	28.8595
2158.06	27.4787
2159.01	25.9852
2159.97	24.5506
2160.92	20.6446
2161.88	25.4835
2162.83	23.6415
2163.79	28.4265
2164.74	26.1989
2165.7	23.5804
2166.65	25.1176
2167.61	28.198
2168.56	26.7206
2169.51	22.8018
2170.47	21.774
2171.42	29.1453
2172.38	28.1366
2173.33	26.1611
2174.28	27.7994
2175.24	24.5127
2176.19	23.5102
2177.14	24.0688
2178.09	25.9138
2179.05	27.3591
2180	24.7157
2180.95	24.6633
2181.9	26.4778
2182.86	25.1228
2183.81	27.1402
2184.76	22.5517
2185.71	26.0168
2186.66	25.4559
2187.61	23.9656
2188.57	28.7437
2189.52	26.3985
2190.47	23.1323
2191.42	24.4547
2192.37	26.2648
2193.32	28.0098
2194.27	27.1441
2195.22	23.1718
2196.17	25.812
2197.12	25.3184
2198.07	22.0618
2199.02	24.4864
2199.97	23.7625
2200.92	24.3468
2201.87	27.6459
2202.82	24.4314
2203.76	25.2176
2204.71	26.4786
2205.66	24.206
2206.61	22.2406
2207.56	26.2809
2208.51	24.652
2209.45	24.3512
2210.4	25.8705
2211.35	25.2987
2212.3	23.6417
2213.24	23.402
2214.19	23.7108
2215.14	24.8013
2216.09	23.9346
2217.03	24.7794
2217.98	23.7175
2218.93	25.14
2219.87	26.4617
2220.82	26.9817
2221.77	26.6666
2222.71	24.5049
2223.66	25.4793
2224.6	26.914
2225.55	24.6167
2226.49	23.7169
2227.44	26.384
2228.38	28.8344
2229.33	26.4027
2230.27	29.1402
2231.22	29.0469
2232.16	26.1253
2233.11	27.6121
2234.05	27.6805
2235	26.6391
2235.94	25.555
2236.88	24.4807
2237.83	25.7206
2238.77	26.4943
2239.71	26.0245
2240.66	27.1373
2241.6	25.6644
2242	24
2242.95	27
2243.9	26
2244.84	24
2245.79	27
2246.74	24
2247.69	28
2248.63	23
2249.58	31
2250.53	26
2251.47	26
2252.42	29
2253.37	26
2254.31	26
2255.26	28
2256.2	28
2257.15	24
2258.1	24
2259.04	24
2259.99	27
2260.93	26
2261.88	24
2262.82	30
2263.77	27
2264.71	24
2265.65	29
2266.6	28
2267.54	22
2268.49	20
2269.43	24
2270.38	24
2271.32	33
2272.26	33
2273.21	24
2274.15	26
2275.09	23
2276.04	23
2276.98	31
2277.92	29
2278.86	25
2279.81	25
2280.75	27
2281.69	24
2282.63	27
2283.57	24
2284.52	30
2285.46	21
2286.4	24
2287.34	26
2288.28	23
2289.22	26
2290.16	24
2291.1	25
2292.04	20
2292.98	26
2293.93	27
2294.86	22
2295.8	28
2296.74	22
2297.69	24
2298.62	22
2299.56	24
2300.5	29
2301.44	23
2302.38	24
2303.32	22
2304.26	30
2305.2	24
2306.14	27
2307.07	24
2308.01	27
2308.95	28
2309.89	26
2310.83	28
2311.76	26
2312.7	24
2313.64	20
2314.58	24
2315.51	26
2316.45	25
2317.39	30
2318.32	27
2319.26	31
2320.2	28
2321.13	24
2322.07	26
2323	25
2323.94	24
2324.88	26
2325.81	22
2326.75	28
2327.68	25
2328.62	32
2329.55	28
2330.49	24
2331.42	28
2332.36	28
2333.29	22
2334.22	25
2335.16	32
2336.09	24
2337.03	30
2337.96	18
2338.89	24
2339.83	24
2340.76	28
2341.69	26
2342.63	20
2343.56	25
2344.49	24
2345.43	24
2346.36	25
2347.29	23
2348.22	27
2349.15	27
2350.09	31
2351.02	28
2351.95	22
2352.88	26
2353.81	27
2354.74	22
2355.67	32
2356.61	25
2357.54	28
2358.47	26
2359.4	24
2360.33	29
2361.26	30
2362.19	23
2363.12	28
2364.05	24
2364.98	29
2365.91	25
2366.84	26
2367.77	24
2368.7	27
2369.62	24
2370.55	26
2371.48	28
2372.41	27
2373.34	26
2374.27	28
2375.2	18
2376.12	27
2377.05	26
2377.98	26
2378.91	25
2379.83	29
2380.76	26
2381.69	29
2382.62	28
2383.54	26
2384.47	26
2385.4	28
2386.32	24
2387.25	31
2388.18	28
2389.1	27
2390.03	26
2390.95	30
2391.88	27
2392.81	27
2393.73	30
2394.66	31
2395.58	31
2396.51	26
2397.43	24
2398.36	33
2399.28	30
2400.2	25
2401.13	24
2402.05	25
2402.98	31
2403.9	24
2404.83	23
2405.75	25
2406.67	25
2407.6	26
2408.52	31
2409.44	28
2410.37	26
2411.29	31
2412.21	28
2413.13	26
2414.06	28
2414.98	26
2415.9	26
2416.82	26
2417.74	28
2418.67	29
2419.59	29
2420.51	29
2421.43	27
2422.35	25
2423.27	30
2424.19	28
2425.11	26
2426.03	30
2426.96	29
2427.88	23
2428.8	28
2429.72	22
2430.64	27
2431.56	28
2432.48	26
2433.39	26
2434.31	28
2435.23	30
2436.15	29
2437.07	24
2437.99	28
2438.91	29
2439.83	25
2440.75	28
2441.67	26
2442.58	26
2443.5	28
2444.42	30
2445.34	18
2446.26	28
2447.17	24
2448.09	31
2449.01	28
2449.92	26
2450.84	27
2451.76	26
2452.68	25
2453.59	25
2454.51	24
2455.42	28
2456.34	28
2457.26	31
2458.17	31
2459.09	31
2460	25
2460.92	27
2461.83	23
2462.75	31
2463.66	24
2464.58	27
2465.49	25
2466.41	28
2467.32	31
2468.24	31
2469.15	23
2470.07	26
2470.98	29
2471.89	29
2472.81	26
2473.72	20
2474.64	26
2475.55	24
2476.46	26
2477.37	24
2478.29	28
2479.2	24
2480.11	29
2481.03	24
2481.94	28
2482.85	22
2483.76	29
2484.67	24
2485.59	25
2486.5	21
2487.41	28
2488.32	25
2489.23	28
2490.14	27
2491.05	26
2491.97	26
2492.88	26
2493.79	26
2494.7	27
2495.61	28
2496.52	28
2497.43	31
2498.34	24
2499.25	27
2500.16	29
2501.07	27
2501.98	28
2502.89	32
2503.79	26
2504.7	27
2505.61	30
2506.52	26
2507.43	26
2508.34	25
2509.25	24
2510.16	26
2511.06	25
2511.97	28
2512.88	27
2513.79	25
2514.69	28
2515.6	28
2516.51	27
2517.42	28
2518.32	24
2519.23	30
2520.14	27
2521.04	22
2521.95	28
2522.86	28
2523.76	27
2524.67	18
2525.57	26
2526.48	26
2527.39	25
2528.29	32
2529.2	28
2530.1	29
2531.01	27
2531.91	27
2532.82	30
2533.72	30
2534.63	20
2535.53	20
2536.44	32
2537.34	27
2538.24	28
2539.15	26
2540.05	30
2540.96	30
2541.86	29
2542.76	30
2543.67	29
2544.57	27
2545.47	29
2546.37	24
2547.28	31
2548.18	27
2549.08	31
2549.99	26
2550.89	31
2551.79	26
2552.69	30
2553.59	27
2554.49	26
2555.4	29
2556.3	28
2557.2	26
2558.1	26
2559	25
2559.9	28
2560.8	22
2561.7	20
2562.6	25
2563.5	28
2564.4	29
2565.3	24
2566.2	29
2567.1	30
2568	30
2568.9	22
2569.8	26
2570.7	30
2571.6	30
2572.5	27
2573.4	29
2574.3	25
2575.2	31
2576.1	26
2576.99	20
2577.89	28
2578.79	22
2579.69	29
2580.59	26
2581.48	24
2582.38	24
2583.28	33
2584.18	28
2585.07	29
2585.97	24
2586.87	28
2587.76	32
2588.66	27
2589.56	25
2590.45	25
2591.35	27
2592.25	27
2593.14	22
2594.04	29
2594.93	30
2595.83	26
2596.73	27
2597.62	26
2598.52	23
2599.41	28
2600.31	24
2601.2	28
2602.1	30
2602.99	26
2603.88	26
2604.78	24
2605.67	30
2606.57	20
2607.46	24
2608.35	25
2609.25	30
2610.14	26
2611.03	32
2611.93	23
2612.82	24
2613.71	24
2614.61	27
2615.5	22
2616.39	25
2617.29	29
2618.18	22
2619.07	27
2619.96	28
2620.85	30
2621.75	25
2622.64	26
2623.53	27
2624.42	27
2625.31	27
2626.2	33
2627.09	22
2627.98	28
2628.88	27
2629.77	29
2630.66	32
2631.55	18
2632.44	28
2633.33	26
2634.22	27
2635.11	27
2636	22
2636.89	28
2637.78	27
2638.66	29
2639.55	31
2640.44	25
2641.33	24
2642.22	26
2643.11	22
2644	24
2644.89	25
2645.78	26
2646.66	29
2647.55	27
2648.44	28
2649.33	26
2650.21	30
2651.1	25
2651.99	33
2652.88	29
2653.76	26
2654.65	31
2655.54	27
2656.42	26
2657.31	32
2658.2	23
2659.08	29
2659.97	20
2660.86	27
2661.74	27
2662.63	28
2663.51	24
2664.4	28
2665.29	24
2666.17	27
2667.06	27
2667.94	26
2668.83	24
2669.71	24
2670.6	26
2671.48	26
2672.36	28
2673.25	26
2674.13	29
2675.02	29
2675.9	26
2676.78	30
2677.67	27
2678.55	30
2679.43	28
2680.32	24
2681.2	24
2682.08	32
2682.97	26
2683.85	34
2684.73	28
2685.61	24
2686.5	28
2687.38	24
2688.26	35
2689.14	26
2690.03	30
2690.91	26
2691.79	31
2692.67	28
2693.55	27
2694.43	24
2695.31	25
2696.19	32
2697.08	22
2697.96	25
2698.84	27
2699.72	28
2700.6	33
2701.48	27
2702.36	34
2703.24	27
2704.12	29
2705	26
2705.88	22
2706.76	22
2707.64	27
2708.51	26
2709.39	26
2710.27	24
2711.15	29
2712.03	29
2712.91	25
2713.79	30
2714.67	24
2715.54	27
2716.42	26
2717.3	32
2718.18	27
2719.05	24
2719.93	27
2720.81	25
2721.69	30
2722.56	28
2723.44	24
2724.32	30
2725.19	28
2726.07	24
2726.95	22
2727.82	26
2728.7	25
2729.58	26
2730.45	29
2731.33	30
2732.2	21
2733.08	29
2733.95	24
2734.83	27
2735.7	20
2736.58	27
2737.45	28
2738.33	28
2739.2	24
2740.08	28
2740.95	27
2741.83	27
2742.7	27
2743.58	27
2744.45	27
2745.32	28
2746.2	25
2747.07	30
2747.94	25
2748.82	26
2749.69	28
2750.56	24
2751.44	26
2752.31	24
2753.18	31
2754.05	26
2754.93	27
2755.8	24
2756.67	31
2757.54	24
2758.42	29
2759.29	28
2760.16	29
2761.03	28
2761.9	24
2762.77	32
2763.64	30
2764.51	27
2765.38	33
2766.26	26
2767.13	27
2768	32
2768.87	30
2769.74	26
2770.61	28
2771.48	26
2772.35	34
2773.22	27
2774.09	27
2774.96	26
2775.83	26
2776.7	30
2777.56	26
2778.43	29
2779.3	30
2780.17	23
2781.04	27
2781.91	20
2782.78	26
2783.64	29
2784.51	31
2785.38	29
2786.25	27
2787.12	27
2787.98	24
2788.85	32
2789.72	30
2790.59	30
2791.45	24
2792.32	31
2793.19	27
2794.05	27
2794.92	22
2795.79	30
2796.65	32
2797.52	31
2798.38	30
2799.25	32
2800.12	31
2800.98	27
2801.85	20
2802.71	29
2803.58	28
2804.44	26
2805.31	27
2806.17	22
2807.04	26
2807.9	30
2808.77	30
2809.63	22
2810.5	29
2811.36	28
2812.22	28
2813.09	28
2813.95	28
2814.82	28
2815.68	25
2816.54	22
2817.41	24
2818.27	22
2819.13	24
2820	30
2820.86	28
2821.72	32
2822.58	30
2823.45	25
2824.31	28
2825.17	28
2826.03	30
2826.9	26
2827.76	32
2828.62	24
2829.48	28
2830.34	34
2831.2	26
2832.06	30
2832.92	26
2833.79	30
2834.65	24
2835.51	22
2836.37	28
2837.23	28
2838.09	29
2838.95	22
2839.81	28
2840.67	29
2841.53	27
2842.39	27
2843.25	30
2844.11	24
2844.97	26
2845.83	27
2846.68	28
2847.54	29
2848.4	30
2849.26	29
2850.12	30
2850.98	28
2851.84	28
2852.69	22
2853.55	28
2854.41	31
2855.27	29
2856.13	27
2856.98	25
2857.84	26
2858.7	29
2859.56	26
2860.41	29
2861.27	28
2862.13	26
2862.98	28
2863.84	28
2864.7	32
2865.55	31
2866.41	28
2867.27	30
2868.12	30
2868.98	30
2869.83	31
2870.69	28
2871.54	27
2872.4	33
2873.25	28
2874.11	26
2874.96	24
2875.82	24
2876.68	30
2877.53	22
2878.38	33
2879.24	33
2880.09	32
2880.95	34
2881.8	32
2882.65	35
2883.51	34
2884.36	38
2885.22	32
2886.07	33
2886.92	32
2887.77	34
2888.63	31
2889.48	35
2890.33	36
2891.19	32
2892.04	36
2892.89	38
2893.74	38
2894.6	39
2895.45	36
2896.3	42
2897.15	45
2898	47
2898.85	48
2899.71	43
2900.56	52
2901.41	58
2902.26	50
2903.11	66
2903.96	57
2904.81	66
2905.66	57
2906.51	56
2907.36	65
2908.21	56
2909.06	56
2909.91	58
2910.76	56
2911.61	54
2912.46	47
2913.31	52
2914.16	50
2915.01	45
2915.86	47
2916.71	41
2917.56	36
2918.41	38
2919.26	38
2920.1	37
2920.95	34
2921.8	34
2922.65	36
2923.5	34
2924.34	32
2925.19	34
2926.04	35
2926.89	37
2927.74	28
2928.58	32
2929.43	30
2930.28	22
2931.12	28
2931.97	29
2932.82	29
2933.66	28
2934.51	33
2935.36	26
2936.2	26
2937.05	30
2937.89	28
2938.74	30
2939.59	32
2940.43	26
2941.28	32
2942.12	34
2942.97	30
2943.81	27
2944.66	34
2945.5	25
2946.35	32
2947.19	27
2948.04	28
2948.88	28
2949.72	28
2950.57	30
2951.41	38
2952.26	32
2953.1	30
2953.94	28
2954.79	32
2955.63	32
2956.47	32
2957.32	32
2958.16	34
2959	32
2959.85	29
2960.69	41
2961.53	38
2962.37	39
2963.22	39
2964.06	41
2964.9	40
2965.74	38
2966.58	40
2967.42	40
2968.27	41
2969.11	44
2969.95	40
2970.79	44
2971.63	38
2972.47	35
2973.31	34
2974.15	41
2974.99	30
2975.83	36
2976.68	31
2977.52	32
2978.36	32
2979.2	33
2980.04	27
2980.88	29
2981.71	26
2982.55	33
2983.39	28
2984.23	28
2985.07	26
2985.91	26
2986.75	28
2987.59	29
2988.43	34
2989.27	26
2990.1	27
2990.94	29
2991.78	27
2992.62	28
2993.46	23
2994.3	27
2995.13	28
2995.97	26
2996.81	26
2997.64	26
2998.48	30
2999.32	30
