#Acq. time (s)=	3
#Accumulations=	3
#Range (cm-¹)=	100...3000
#Windows=	3
#Autofocus=	Off
#AutoExposure=	Off
#Spike filter=	Multiple accum.
#Delay time (s)=	0
#Binning=	1
#Readout mode=	Signal
#DeNoise=	Off
#ICS correction=	Off
#Dark correction=	Off
#Inst. Process=	Off
#Instrument=	LabRAM HR Evol
#Detector=	Syncerity OE
#Objective=	x100_VIS_LWD
#Grating=	600 (500nm)
#ND Filter=	25%
#Laser=	633nm_Edge
#Hole=	100.021
#Range=	Visible
#Project=	Bolus
#Sample=	B2
#Site=	stripside
#Title=	m11
#Remark=	
#Date=	03.11.2025 17:56
#Acquired=	03.11.2025 17:56:21
100.969	30
102.252	30
103.535	32
104.818	30
106.101	30
107.384	37
108.666	29
109.948	36
111.232	29
112.514	31
113.795	26
115.077	28
116.358	30
117.639	30
118.919	26
120.2	28
121.48	32
122.76	32
124.04	36
125.32	35
126.599	32
127.879	32
129.158	32
130.436	34
131.715	37
132.992	31
134.27	32
135.548	30
136.826	32
138.104	34
139.381	30
140.658	33
141.935	32
143.212	31
144.489	30
145.763	30
147.04	30
148.315	36
149.591	34
150.867	34
152.142	31
153.416	32
154.691	40
155.965	33
157.24	34
158.514	36
159.786	39
161.06	34
162.334	41
163.607	36
164.881	39
166.152	30
167.425	38
168.698	34
169.969	37
171.241	33
172.513	37
173.785	36
175.055	34
176.326	34
177.597	38
178.867	34
180.137	40
181.408	37
182.677	37
183.947	36
185.217	35
186.485	34
187.755	37
189.022	36
190.291	34
191.56	42
192.828	36
194.096	36
195.363	34
196.631	38
197.899	35
199.165	32
200.432	36
201.698	36
202.965	31
204.23	37
205.497	35
206.762	37
208.028	35
209.293	36
210.559	35
211.823	35
213.088	32
214.352	30
215.617	36
216.88	33
218.145	32
219.408	36
220.672	32
221.934	28
223.196	32
224.46	32
225.722	28
226.985	32
228.246	24
229.508	36
230.77	32
232.031	34
233.292	28
234.554	32
235.814	30
237.074	35
238.335	34
239.595	35
240.854	28
242.115	30
243.374	30
244.633	32
245.893	30
247.151	26
248.409	32
249.667	28
250.927	29
252.184	27
253.442	26
254.699	26
255.957	26
257.214	24
258.47	29
259.727	30
260.983	30
262.24	32
263.496	31
264.752	33
266.007	35
267.262	31
268.517	30
269.773	32
271.028	27
272.282	31
273.536	30
274.79	24
276.044	28
277.297	26
278.551	30
279.804	30
281.057	30
282.31	27
283.564	24
284.816	26
286.068	33
287.32	31
288.572	30
289.823	30
291.074	30
292.325	31
293.576	30
294.827	31
296.077	31
297.328	31
298.578	30
299.828	29
301.077	28
302.325	32
303.575	32
304.824	30
306.073	27
307.321	29
308.57	28
309.818	31
311.066	27
312.314	33
313.562	30
314.808	28
316.055	26
317.302	30
318.549	29
319.796	33
321.042	26
322.288	28
323.533	31
324.779	30
326.024	26
327.27	30
328.515	30
329.759	29
331.004	30
332.248	28
333.493	29
334.736	30
335.98	27
337.223	28
338.466	28
339.709	31
340.952	26
342.195	27
343.437	33
344.68	30
345.922	28
347.163	34
348.405	31
349.647	34
350.887	29
352.128	30
353.37	33
354.609	32
355.85	27
357.089	28
358.33	27
359.57	31
360.809	30
362.049	28
363.287	26
364.526	24
365.764	31
367.003	31
368.241	30
369.479	27
370.718	32
371.955	28
373.193	34
374.429	30
375.667	34
376.903	26
378.139	28
379.376	22
380.611	28
381.848	30
383.083	30
384.319	30
385.554	32
386.79	32
388.024	32
389.258	35
390.493	28
391.727	30
392.962	35
394.195	28
395.428	27
396.663	32
397.895	30
399.128	32
400.361	28
401.593	29
402.825	28
404.058	27
405.29	32
406.521	28
407.752	31
408.985	32
410.215	29
411.446	32
412.678	31
413.908	28
415.138	28
416.367	35
417.597	28
418.828	28
420.057	30
421.286	34
422.514	26
423.743	35
424.973	31
426.201	30
427.429	32
428.657	28
429.884	28
431.112	31
432.34	26
433.567	29
434.794	32
436.02	28
437.247	30
438.473	30
439.699	36
440.925	35
442.15	28
443.376	28
444.601	31
445.826	25
447.051	27
448.275	36
449.5	30
450.724	30
451.948	30
453.172	28
454.396	30
455.619	26
456.842	30
458.065	28
459.288	30
460.511	31
461.733	30
462.956	29
464.178	32
465.4	34
466.621	28
467.843	33
469.064	36
470.285	30
471.505	32
472.726	32
473.946	36
475.166	32
476.387	33
477.606	37
478.825	40
480.044	42
481.264	40
482.483	44
483.702	46
484.921	44
486.138	48
487.356	51
488.574	53
489.792	51
491.009	57
492.226	49
493.444	44
494.661	40
495.877	50
497.094	44
498.31	47
499.525	38
500.741	39
501.958	40
503.172	39
504.388	40
505.603	36
506.817	33
508.032	32
509.247	40
510.46	36
511.675	30
512.888	34
514.102	34
515.316	36
516.528	32
517.742	28
518.954	31
520.167	33
521.378	27
522.591	34
523.802	34
525.015	34
526.226	34
527.438	32
528.648	31
529.86	33
531.07	29
532.281	35
533.491	25
534.702	28
535.911	35
537.121	29
538.33	34
539.54	31
540.749	31
541.957	32
543.167	31
544.375	33
545.584	32
546.791	30
547.999	28
549.207	33
550.414	31
551.621	31
552.829	32
554.035	33
555.241	30
556.449	25
557.655	27
558.86	34
560.066	33
561.272	38
562.477	29
563.682	31
564.888	24
566.093	33
567.297	30
568.501	30
569.705	26
570.91	34
572.114	28
573.317	32
574.52	26
575.723	26
576.927	32
578.13	26
579.332	30
580.535	26
581.737	23
582.938	34
584.14	31
585.343	34
586.544	32
587.745	29
588.946	28
590.147	28
591.347	30
592.548	36
593.748	28
594.948	33
596.147	35
597.347	32
598.546	29
599.745	26
600.944	30
602.143	26
603.342	31
604.54	31
605.738	28
606.937	28
608.134	33
609.332	28
610.529	30
611.727	33
612.924	30
614.121	32
615.317	29
616.513	22
617.709	30
618.905	29
620.101	30
621.297	28
622.492	33
623.688	32
624.883	28
626.077	31
627.271	28
628.466	32
629.66	32
630.855	34
632.047	28
633.241	33
634.435	26
635.629	33
636.82	26
638.014	31
639.207	31
640.399	26
641.59	29
642.783	25
643.975	26
645.166	35
646.357	30
647.549	31
648.741	30
649.93	30
651.122	27
652.311	31
653.502	31
654.692	27
655.881	29
657.071	32
658.261	29
659.45	28
660.639	31
661.827	26
663.016	24
664.204	29
665.393	32
666.581	31
667.769	28
668.957	32
670.143	33
671.331	28
672.518	33
673.705	31
674.891	33
676.078	34
677.264	34
678.451	35
679.636	38
680.821	37
682.007	32
683.192	32
684.378	30
685.562	28
686.747	30
687.931	32
689.115	37
690.3	28
691.483	32
692.666	34
693.851	24
695.034	35
696.216	36
697.4	33
698.582	30
699.764	34
700.948	28
702.129	42
703.311	34
704.493	36
705.674	42
706.855	42
708.036	36
709.218	41
710.399	43
711.579	42
712.759	34
713.939	36
715.12	38
716.299	37
717.478	38
718.657	32
719.836	24
721.015	32
722.195	25
723.373	31
724.552	30
725.729	32
726.907	30
728.085	29
729.262	33
730.44	30
731.617	27
732.795	28
733.972	32
735.148	28
736.324	35
737.501	29
738.677	28
739.852	22
741.028	30
742.203	35
743.379	30
744.554	26
745.729	36
746.903	31
748.078	32
749.252	36
750.426	31
751.599	31
752.772	34
753.946	30
755.119	29
756.293	24
757.466	26
758.639	29
759.811	29
760.984	32
762.155	29
763.327	37
764.499	34
765.67	33
766.842	30
768.013	33
769.183	28
770.354	34
771.525	32
772.696	26
773.865	31
775.035	34
776.205	20
777.375	30
778.544	37
779.713	29
780.882	30
782.052	31
783.219	26
784.388	30
785.557	32
786.724	31
787.892	32
789.06	36
790.227	30
791.395	30
792.562	30
793.728	28
794.895	34
796.061	30
797.228	36
798.395	28
799.56	26
800.726	30
801.891	30
803.057	30
804.221	28
805.387	33
806.551	34
807.716	30
808.879	32
810.044	32
811.208	28
812.372	29
813.535	28
814.699	33
815.862	32
817.025	30
818.188	26
819.351	33
820.513	22
821.675	34
822.837	29
823.999	28
825.161	29
826.322	30
827.483	32
828.645	28
829.805	29
830.966	34
832.127	29
833.287	34
834.447	28
835.607	28
836.767	29
837.926	29
839.085	28
840.245	32
841.404	30
842.562	30
843.72	25
844.88	28
846.038	33
847.195	32
848.353	24
849.512	30
850.669	29
851.826	28
852.983	31
854.139	32
855.296	30
856.453	33
857.609	25
858.765	30
859.921	31
861.077	30
862.232	34
863.387	24
864.542	31
865.697	26
866.852	30
868.008	33
869.162	30
870.316	28
871.47	35
872.624	29
873.778	35
874.931	28
876.084	31
877.237	27
878.39	28
879.543	29
880.695	30
881.846	34
882.999	30
884.151	26
885.302	24
886.454	30
887.606	28
888.757	29
889.908	29
891.059	28
892.21	26
893.359	30
894.509	24
895.659	24
896.81	27
897.959	26
899.109	31
900.257	30
901.407	30
902.556	29
903.705	28
904.854	26
906.001	28
907.149	33
908.298	26
909.446	33
910.592	24
911.74	26
912.888	29
914.034	32
915.181	33
916.328	26
917.473	34
918.62	33
919.766	24
920.911	26
922.058	34
923.204	30
924.348	31
925.494	30
926.638	29
927.783	28
928.928	26
930.072	31
931.216	30
932.36	26
933.504	28
934.647	27
935.791	26
936.933	29
938.077	29
939.219	27
940.363	27
941.504	28
942.647	28
943.789	22
944.932	31
946.073	30
947.215	37
948.356	29
949.498	28
950.638	26
951.778	30
952.92	32
954.06	28
955.199	24
956.34	34
957.479	27
958.62	31
959.759	32
960.898	30
962.038	30
963.176	30
964.315	28
965.453	30
966.592	31
967.73	28
968.867	28
970.006	33
971.144	33
972.281	33
973.418	26
974.554	29
975.692	30
976.829	27
977.965	30
979.101	27
980.237	26
981.374	31
982.509	34
983.645	26
984.78	26
985.915	24
987.05	27
988.184	29
989.319	29
990.453	33
991.589	32
992.722	30
993.856	31
994.99	31
996.123	26
997.257	25
998.39	31
999.523	26
1000.66	30
1001.79	31
1002.92	28
1004.05	28
1005.18	28
1006.32	32
1007.45	29
1008.58	32
1009.71	27
1010.84	28
1011.97	27
1013.1	27
1014.23	28
1015.36	28
1016.49	26
1017.62	30
1018.75	29
1019.88	29
1021.01	32
1022.14	25
1023.27	31
1024.4	28
1025.53	28
1026.66	27
1027.79	28
1028.91	30
1030.04	27
1031.17	25
1032.3	23
1033.42	28
1034.55	32
1035.68	30
1036.81	30
1037.93	31
1039.06	26
1040.18	32
1041.31	27
1042.44	29
1043.56	28
1044.69	28
1045.81	28
1046.94	28
1048.06	31
1049.19	28
1050.31	22
1051.44	25
1052.56	30
1053.69	27
1054.81	24
1055.93	27
1057.06	34
1058.18	24
1059.3	28
1060.43	31
1061.55	24
1062.67	30
1063.79	22
1064.92	28
1066.04	24
1067.16	27
1068.28	32
1069.4	24
1070.52	32
1071.65	26
1072.77	28
1073.89	30
1075.01	24
1076.13	32
1077.25	28
1078.37	20
1079.49	29
1080.61	26
1081.73	33
1082.85	29
1083.97	28
1085.09	29
1086.2	27
1087.32	29
1088.44	30
1089.56	25
1090.68	30
1091.8	29
1092.91	34
1094.03	30
1095.15	29
1096.26	24
1097.38	24
1098.5	26
1099.61	32
1100.73	28
1101.85	26
1102.96	24
1104.08	22
1105.19	24
1106.31	24
1107.43	26
1108.54	26
1109.66	27
1110.77	28
1111.88	26
1113	26
1114.11	27
1115.23	26
1116.34	32
1117.46	30
1118.57	28
1119.68	30
1120.8	26
1121.91	30
1123.02	28
1124.13	28
1125.25	27
1126.36	31
1127.47	30
1128.58	27
1129.69	28
1130.8	30
1131.92	26
1133.03	24
1134.14	28
1135.25	27
1136.36	28
1137.47	27
1138.58	30
1139.69	23
1140.8	30
1141.91	25
1143.02	27
1144.13	28
1145.24	26
1146.35	26
1147.46	27
1148.56	28
1149.67	25
1150.78	27
1151.89	30
1153	24
1154.1	26
1155.21	24
1156.32	29
1157.43	26
1158.53	32
1159.64	29
1160.75	28
1161.85	20
1162.96	26
1164.07	28
1165.17	27
1166.28	32
1167.38	28
1168.49	28
1169.59	31
1170.7	20
1171.8	26
1172.91	29
1174.01	27
1175.12	27
1176.22	25
1177.32	25
1178.43	30
1179.53	30
1180.64	28
1181.74	29
1182.84	26
1183.94	30
1185.05	28
1186.15	28
1187.25	28
1188.35	28
1189.46	25
1190.56	28
1191.66	30
1192.76	30
1193.86	28
1194.96	26
1196.06	29.9853
1197.16	29.9393
1198.26	26.0029
1199.37	28.9885
1200.47	24.0706
1201.57	25.9019
1202.67	24.1275
1203.77	30.5535
1204.86	23.8672
1205.96	25.6325
1207.06	25.53
1208.16	30.8803
1209.26	27.7607
1210.36	24.9939
1211.46	31.0074
1212.56	27.0005
1213.65	27.6765
1214.75	26.1673
1215.85	31.0989
1216.95	28.4265
1218.04	27.7886
1219.14	23.1659
1220.24	26.8976
1221.33	22.7099
1222.43	23.7816
1223.53	23.9506
1224.62	27.4804
1225.72	26.9857
1226.82	29.6829
1227.91	23.8406
1229.01	30.7399
1230.1	28.441
1231.2	26.5578
1232.29	28.4163
1233.39	30.0068
1234.48	24.6858
1235.58	26.5736
1236.67	27.1997
1237.77	26.8202
1238.86	27.7914
1239.95	27.6998
1241.05	28.9512
1242.14	29.6767
1243.23	27.7064
1244.33	25.7236
1245.42	26.635
1246.51	26.5826
1247.61	25.1063
1248.7	26.4198
1249.79	25.6765
1250.88	25.6606
1251.97	26.8418
1253.07	28.7084
1254.16	28.2733
1255.25	28.6903
1256.34	30.213
1257.43	27.276
1258.52	26.4117
1259.61	26.7579
1260.7	24.5869
1261.79	27.7075
1262.88	27.6529
1263.97	25.3278
1265.06	25.7549
1266.15	27.9905
1267.24	30.6278
1268.33	26.9764
1269.42	26.3631
1270.51	24.7773
1271.6	27.5522
1272.68	24.3316
1273.77	26.8121
1274.86	28.208
1275.95	29.5397
1277.04	27.5793
1278.12	27.1465
1279.21	24.7553
1280.3	26.7007
1281.39	26.2997
1282.47	26.2919
1283.56	28.8431
1284.65	27.3157
1285.73	26.9559
1286.82	26.5477
1287.91	29.1791
1288.99	29.0303
1290.08	27.2623
1291.16	27.3319
1292.25	25.0327
1293.33	26.7625
1294.42	25.1488
1295.5	27.1094
1296.59	23.19
1297.67	26.3087
1298.76	25.2407
1299.84	27.8358
1300.92	27.8404
1302.01	32.7074
1303.09	23.3633
1304.17	24.1723
1305.26	25.9706
1306.34	26.1645
1307.34	28
1308.43	26
1309.52	20
1310.61	28
1311.7	29
1312.78	24
1313.87	24
1314.96	30
1316.04	29
1317.13	26
1318.22	30
1319.3	24
1320.39	26
1321.48	24
1322.56	28
1323.65	30
1324.73	28
1325.82	30
1326.9	32
1327.99	31
1329.07	26
1330.16	29
1331.24	25
1332.33	25
1333.41	30
1334.5	31
1335.58	28
1336.66	27
1337.75	24
1338.83	31
1339.91	24
1341	28
1342.08	28
1343.16	29
1344.24	24
1345.33	22
1346.41	28
1347.49	30
1348.57	30
1349.65	24
1350.74	27
1351.82	28
1352.9	26
1353.98	26
1355.06	29
1356.14	30
1357.22	22
1358.3	26
1359.38	26
1360.46	26
1361.54	28
1362.62	27
1363.7	30
1364.78	30
1365.86	25
1366.94	28
1368.02	28
1369.09	28
1370.17	23
1371.25	30
1372.33	28
1373.41	28
1374.48	27
1375.56	29
1376.64	28
1377.72	33
1378.79	27
1379.87	30
1380.95	28
1382.02	27
1383.1	30
1384.17	28
1385.25	30
1386.33	30
1387.4	24
1388.48	32
1389.55	24
1390.63	29
1391.7	27
1392.78	26
1393.85	28
1394.93	29
1396	27
1397.07	30
1398.15	33
1399.22	32
1400.3	28
1401.37	24
1402.44	34
1403.52	29
1404.59	30
1405.66	27
1406.73	29
1407.81	32
1408.88	32
1409.95	29
1411.02	28
1412.09	30
1413.17	28
1414.24	36
1415.31	33
1416.38	33
1417.45	32
1418.52	29
1419.59	34
1420.66	30
1421.73	24
1422.8	26
1423.87	32
1424.94	26
1426.01	24
1427.08	29
1428.15	30
1429.22	31
1430.29	28
1431.35	24
1432.42	30
1433.49	29
1434.56	28
1435.63	30
1436.69	28
1437.76	26
1438.83	30
1439.9	30
1440.96	28
1442.03	28
1443.1	28
1444.17	32
1445.23	30
1446.3	24
1447.36	25
1448.43	29
1449.49	32
1450.56	33
1451.63	32
1452.69	32
1453.76	24
1454.82	18
1455.89	31
1456.95	30
1458.01	30
1459.08	28
1460.14	30
1461.21	26
1462.27	30
1463.34	24
1464.4	24
1465.46	26
1466.52	26
1467.59	24
1468.65	22
1469.71	26
1470.77	24
1471.84	26
1472.9	28
1473.96	35
1475.02	31
1476.08	34
1477.15	30
1478.21	31
1479.27	26
1480.33	32
1481.39	27
1482.45	29
1483.51	28
1484.57	32
1485.63	28
1486.69	28
1487.75	26
1488.81	27
1489.87	27
1490.93	31
1491.99	33
1493.05	29
1494.1	26
1495.16	31
1496.22	30
1497.28	28
1498.34	30
1499.4	28
1500.45	24
1501.51	27
1502.57	28
1503.63	30
1504.68	29
1505.74	26
1506.8	28
1507.85	29
1508.91	32
1509.97	28
1511.02	31
1512.08	32
1513.13	28
1514.19	31
1515.24	26
1516.3	22
1517.35	28
1518.41	27
1519.46	31
1520.52	24
1521.57	30
1522.63	25
1523.68	24
1524.73	26
1525.79	31
1526.84	28
1527.9	31
1528.95	30
1530	28
1531.05	22
1532.11	26
1533.16	32
1534.21	30
1535.26	33
1536.32	26
1537.37	27
1538.42	29
1539.47	29
1540.52	25
1541.57	24
1542.63	28
1543.68	24
1544.73	28
1545.78	29
1546.83	26
1547.88	26
1548.93	26
1549.98	32
1551.03	24
1552.08	30
1553.13	27
1554.18	27
1555.23	29
1556.27	24
1557.32	26
1558.37	28
1559.42	27
1560.47	26
1561.52	30
1562.56	28
1563.61	32
1564.66	27
1565.71	28
1566.75	27
1567.8	30
1568.85	30
1569.9	28
1570.94	31
1571.99	26
1573.03	30
1574.08	28
1575.13	31
1576.17	25
1577.22	32
1578.26	28
1579.31	28
1580.35	31
1581.4	30
1582.44	31
1583.49	29
1584.53	28
1585.58	30
1586.62	29
1587.66	29
1588.71	30
1589.75	28
1590.8	30
1591.84	24
1592.88	28
1593.92	24
1594.97	24
1596.01	24
1597.05	28
1598.1	30
1599.14	30
1600.18	28
1601.22	33
1602.26	26
1603.3	23
1604.35	29
1605.39	28
1606.43	33
1607.47	27
1608.51	30
1609.55	27
1610.59	22
1611.63	30
1612.67	28
1613.71	22
1614.75	26
1615.79	27
1616.83	30
1617.87	26
1618.91	30
1619.95	29
1620.99	29
1622.02	24
1623.06	30
1624.1	31
1625.14	32
1626.18	29
1627.21	30
1628.25	25
1629.29	28
1630.33	24
1631.36	29
1632.4	29
1633.44	26
1634.48	28
1635.51	24
1636.55	24
1637.58	26
1638.62	28
1639.66	29
1640.69	28
1641.73	29
1642.76	29
1643.8	29
1644.83	31
1645.87	24
1646.9	27
1647.94	29
1648.97	28
1650	28
1651.04	18
1652.07	26
1653.11	26
1654.14	30
1655.17	24
1656.21	26
1657.24	27
1658.27	27
1659.31	31
1660.34	30
1661.37	25
1662.4	30
1663.43	31
1664.47	22
1665.5	30
1666.53	32
1667.56	29
1668.59	26
1669.62	26
1670.66	26
1671.69	28
1672.72	33
1673.75	32
1674.78	25
1675.81	26
1676.84	30
1677.87	26
1678.9	27
1679.93	27
1680.96	31
1681.98	27
1683.01	26
1684.04	27
1685.07	28
1686.1	28
1687.13	28
1688.16	28
1689.18	28
1690.21	24
1691.24	28
1692.27	20
1693.3	31
1694.32	30
1695.35	24
1696.38	31
1697.4	26
1698.43	30
1699.46	28
1700.48	23
1701.51	29
1702.54	26
1703.56	32
1704.59	32
1705.61	25
1706.64	26
1707.66	26
1708.69	30
1709.71	28
1710.74	26
1711.76	33
1712.79	30
1713.81	20
1714.83	27
1715.86	30
1716.88	30
1717.91	28
1718.93	30
1719.95	30
1720.98	26
1722	28
1723.02	30
1724.04	26
1725.07	30
1726.09	32
1727.11	28
1728.13	30
1729.15	34
1730.18	30
1731.2	25
1732.22	32
1733.24	32
1734.26	29
1735.28	28
1736.3	25
1737.32	30
1738.34	24
1739.36	30
1740.38	26
1741.4	27
1742.42	29
1743.44	26
1744.46	27
1745.48	26
1746.5	28
1747.52	29
1748.54	23
1749.56	28
1750.58	29
1751.6	31
1752.61	33
1753.63	26
1754.65	24
1755.67	28
1756.68	29
1757.7	31
1758.72	27
1759.74	27
1760.75	27
1761.77	28
1762.79	27
1763.8	26
1764.82	28
1765.83	26
1766.85	26
1767.87	29
1768.88	29
1769.9	26
1770.91	31
1771.93	30
1772.94	31
1773.96	25
1774.97	30
1775.99	29
1777	26
1778.02	30
1779.03	24
1780.04	28
1781.06	27
1782.07	30
1783.09	32
1784.1	30
1785.11	25
1786.13	28
1787.14	31
1788.15	26
1789.16	25
1790.18	27
1791.19	24
1792.2	27
1793.21	28
1794.22	25
1795.23	28
1796.25	26
1797.26	30
1798.27	26
1799.28	24
1800.29	32
1801.3	26
1802.31	29
1803.32	27
1804.33	27
1805.34	24
1806.35	30
1807.36	24
1808.37	26
1809.38	28
1810.39	28
1811.4	27
1812.41	28
1813.42	29
1814.42	26
1815.43	26
1816.44	34
1817.45	30
1818.46	27
1819.47	27
1820.47	29
1821.48	28
1822.49	28
1823.49	28
1824.5	27
1825.51	27
1826.52	27
1827.52	22
1828.53	26
1829.53	26
1830.54	30
1831.55	24
1832.55	22
1833.56	27
1834.56	24
1835.57	26
1836.57	30
1837.58	32
1838.58	26
1839.59	24
1840.59	28
1841.6	25
1842.6	29
1843.61	29
1844.61	28
1845.61	24
1846.62	22
1847.62	34
1848.62	22
1849.63	28
1850.63	25
1851.63	28
1852.64	32
1853.64	30
1854.64	28
1855.64	22
1856.64	32
1857.65	28
1858.65	27
1859.65	30
1860.65	25
1861.65	26
1862.65	29
1863.65	28
1864.66	27
1865.66	26
1866.66	30
1867.66	18
1868.66	29
1869.66	28
1870.66	28
1871.66	30
1872.66	24
1873.66	32
1874.66	30
1875.65	30
1876.65	25
1877.65	28
1878.65	27
1879.65	24
1880.65	26
1881.65	28
1882.64	30
1883.64	25
1884.64	25
1885.64	28
1886.63	28
1887.63	28
1888.63	28
1889.63	30
1890.62	27
1891.62	22
1892.62	22
1893.61	29
1894.61	25
1895.6	29
1896.6	28
1897.6	27
1898.59	26
1899.59	27
1900.58	29
1901.58	24
1902.57	29
1903.57	23
1904.56	30
1905.56	29
1906.55	27
1907.54	29
1908.54	27
1909.53	29
1910.53	26
1911.52	29
1912.51	27
1913.51	25
1914.5	29
1915.49	23
1916.49	28
1917.48	33
1918.47	25
1919.46	29
1920.46	30
1921.45	24
1922.44	26
1923.43	26
1924.42	26
1925.41	28
1926.41	24
1927.4	28
1928.39	24
1929.38	24
1930.37	24
1931.36	30
1932.35	28
1933.34	26
1934.33	28
1935.32	30
1936.31	26
1937.3	29
1938.29	25
1939.28	26
1940.27	27
1941.26	29
1942.24	25
1943.23	26
1944.22	26
1945.21	30
1946.2	27
1947.19	26
1948.17	28
1949.16	28
1950.15	26
1951.14	24
1952.12	29
1953.11	29
1954.1	24
1955.09	30
1956.07	22
1957.06	28
1958.05	26
1959.03	28
1960.02	31
1961	26
1961.99	25
1962.98	26
1963.96	32
1964.95	26
1965.93	27
1966.92	22
1967.9	27
1968.89	31
1969.87	26
1970.85	32
1971.84	24
1972.82	31
1973.81	27
1974.79	26
1975.78	30
1976.76	26
1977.74	27
1978.73	20
1979.71	25
1980.69	30
1981.67	28
1982.66	30
1983.64	29
1984.62	23
1985.6	24
1986.59	24
1987.57	30
1988.55	26
1989.53	29
1990.51	30
1991.49	28
1992.47	23
1993.45	24
1994.44	30
1995.42	27
1996.4	28
1997.38	26
1998.36	28
1999.34	26
2000.32	27
2001.3	29
2002.28	24
2003.26	29
2004.24	24
2005.22	30
2006.19	26
2007.17	29
2008.15	26
2009.13	26
2010.11	28
2011.09	29
2012.06	23
2013.04	24
2014.02	26
2015	26
2015.98	28
2016.95	28
2017.93	24
2018.91	27
2019.88	30
2020.86	25
2021.84	26
2022.81	27
2023.79	31
2024.77	25
2025.74	21
2026.72	25
2027.69	26
2028.67	26
2029.65	30
2030.62	24
2031.6	26
2032.57	24
2033.55	26
2034.52	25
2035.5	27
2036.47	29
2037.44	26
2038.42	28
2039.39	24
2040.36	26
2041.34	26
2042.31	24
2043.29	24
2044.26	32
2045.23	22
2046.2	24
2047.18	25
2048.15	30
2049.12	30
2050.09	23
2051.07	25
2052.04	28
2053.01	26
2053.98	24
2054.95	24
2055.93	26
2056.9	30
2057.87	31
2058.84	27
2059.81	29
2060.78	24
2061.75	27
2062.72	28
2063.69	26
2064.66	29
2065.63	24
2066.6	28
2067.57	26
2068.54	22
2069.51	28
2070.48	30
2071.45	27
2072.42	26
2073.38	30
2074.35	30
2075.32	32
2076.29	20
2077.26	24
2078.23	26
2079.19	28
2080.16	27
2081.13	27
2082.1	22
2083.06	27
2084.03	29
2085	28
2085.96	26
2086.93	30
2087.9	28
2088.86	27
2089.83	24
2090.8	27
2091.76	29
2092.73	24
2093.69	24
2094.66	22
2095.62	24
2096.59	26
2097.55	18
2098.52	20
2099.48	26
2100.45	25
2101.41	24
2102.38	28
2103.34	25
2104.31	23
2105.27	29
2106.23	28
2107.2	22
2108.16	28
2109.12	22
2110.09	28
2111.05	26
2112.01	24
2112.98	29
2113.94	23
2114.9	27
2115.86	30
2116.82	30
2117.79	27
2118.75	28
2119.71	28
2120.67	30
2121.63	29
2122.59	28
2123.55	27
2124.52	26
2125.48	25
2126.44	27
2127.4	27
2128.36	23
2129.32	26
2130.28	22
2131.24	28
2132.2	22
2133.16	23
2134.12	24
2135.08	26
2136.04	24
2136.99	28
2137.95	29
2138.91	25
2139.87	22
2140.83	24
2141.79	21
2142.75	26
2143.7	26
2144.66	25
2145.62	27.9897
2146.58	27.9586
2147.53	24.0735
2148.49	23.1232
2149.45	28.7047
2150.41	28.8459
2151.36	28.911
2152.32	26.6412
2153.27	24.0093
2154.23	23.26
2155.19	26.4948
2156.14	25.7838
2157.1	25.9955
2158.06	25.888
2159.01	27.4043
2159.97	23.1423
2160.92	24.3604
2161.88	23.9945
2162.83	26.7293
2163.79	24.8529
2164.74	27.5901
2165.7	22.4096
2166.65	24.2175
2167.61	25.7696
2168.56	24.4744
2169.51	26.2648
2170.47	27.7134
2171.42	23.7737
2172.38	30.8195
2173.33	26.4647
2174.28	25.701
2175.24	25.9814
2176.19	21.9974
2177.14	20.7633
2178.09	25.1512
2179.05	24.7734
2180	29.7461
2180.95	23.5375
2181.9	24.6349
2182.86	24.8831
2183.81	27.1641
2184.76	26.2311
2185.71	25.9517
2186.66	26.9706
2187.61	25.6912
2188.57	26.2705
2189.52	25.0671
2190.47	27.137
2191.42	25.5531
2192.37	24.6029
2193.32	24.329
2194.27	26.1677
2195.22	26.9706
2196.17	23.7865
2197.12	24.7417
2198.07	24.434
2199.02	25.9915
2199.97	27.0913
2200.92	26.9204
2201.87	26.2361
2202.82	25.249
2203.76	25.4892
2204.71	25.9724
2205.66	24.206
2206.61	25.302
2207.56	25.224
2208.51	25.9868
2209.45	27.3374
2210.4	26.6569
2211.35	25.6212
2212.3	21.643
2213.24	23.5557
2214.19	24
2215.14	22.9562
2216.09	25.1961
2217.03	25.2408
2217.98	23
2218.93	26.4503
2219.87	27.2323
2220.82	24.8379
2221.77	25.7211
2222.71	25.0099
2223.66	24
2224.6	23.4488
2225.55	23.9343
2226.49	28.7245
2227.44	27.8922
2228.38	24.8813
2229.33	25.4172
2230.27	24.3051
2231.22	24.0329
2232.16	26.2346
2233.11	28.8819
2234.05	22.4019
2235	23.5724
2235.94	25.3465
2236.88	24.4654
2237.83	24.1176
2238.77	24.2059
2239.71	21.8229
2240.66	24.6376
2241.6	26.2459
2242	25
2242.95	24
2243.9	20
2244.84	26
2245.79	24
2246.74	22
2247.69	26
2248.63	30
2249.58	26
2250.53	25
2251.47	24
2252.42	24
2253.37	22
2254.31	26
2255.26	28
2256.2	28
2257.15	22
2258.1	24
2259.04	25
2259.99	22
2260.93	24
2261.88	23
2262.82	28
2263.77	28
2264.71	28
2265.65	24
2266.6	30
2267.54	20
2268.49	26
2269.43	25
2270.38	26
2271.32	25
2272.26	26
2273.21	24
2274.15	29
2275.09	22
2276.04	24
2276.98	24
2277.92	29
2278.86	24
2279.81	24
2280.75	26
2281.69	27
2282.63	22
2283.57	29
2284.52	25
2285.46	26
2286.4	26
2287.34	24
2288.28	31
2289.22	18
2290.16	29
2291.1	25
2292.04	29
2292.98	28
2293.93	25
2294.86	22
2295.8	30
2296.74	28
2297.69	33
2298.62	29
2299.56	22
2300.5	22
2301.44	22
2302.38	27
2303.32	22
2304.26	25
2305.2	24
2306.14	26
2307.07	27
2308.01	24
2308.95	26
2309.89	27
2310.83	26
2311.76	25
2312.7	28
2313.64	25
2314.58	28
2315.51	28
2316.45	22
2317.39	26
2318.32	28
2319.26	24
2320.2	26
2321.13	31
2322.07	24
2323	26
2323.94	26
2324.88	27
2325.81	21
2326.75	29
2327.68	29
2328.62	23
2329.55	28
2330.49	29
2331.42	31
2332.36	31
2333.29	27
2334.22	28
2335.16	28
2336.09	18
2337.03	28
2337.96	27
2338.89	25
2339.83	26
2340.76	24
2341.69	26
2342.63	22
2343.56	29
2344.49	28
2345.43	29
2346.36	24
2347.29	31
2348.22	23
2349.15	29
2350.09	24
2351.02	29
2351.95	25
2352.88	22
2353.81	24
2354.74	24
2355.67	30
2356.61	22
2357.54	27
2358.47	22
2359.4	28
2360.33	27
2361.26	29
2362.19	25
2363.12	24
2364.05	27
2364.98	30
2365.91	26
2366.84	28
2367.77	24
2368.7	28
2369.62	28
2370.55	26
2371.48	25
2372.41	26
2373.34	27
2374.27	23
2375.2	27
2376.12	27
2377.05	20
2377.98	24
2378.91	31
2379.83	22
2380.76	33
2381.69	27
2382.62	29
2383.54	25
2384.47	22
2385.4	29
2386.32	24
2387.25	27
2388.18	26
2389.1	30
2390.03	24
2390.95	24
2391.88	24
2392.81	27
2393.73	24
2394.66	26
2395.58	26
2396.51	26
2397.43	29
2398.36	24
2399.28	26
2400.2	27
2401.13	25
2402.05	25
2402.98	25
2403.9	27
2404.83	30
2405.75	30
2406.67	25
2407.6	24
2408.52	22
2409.44	30
2410.37	28
2411.29	28
2412.21	29
2413.13	22
2414.06	29
2414.98	26
2415.9	22
2416.82	29
2417.74	28
2418.67	32
2419.59	26
2420.51	28
2421.43	28
2422.35	27
2423.27	22
2424.19	27
2425.11	25
2426.03	30
2426.96	28
2427.88	23
2428.8	28
2429.72	26
2430.64	25
2431.56	24
2432.48	26
2433.39	27
2434.31	26
2435.23	26
2436.15	26
2437.07	27
2437.99	28
2438.91	26
2439.83	22
2440.75	25
2441.67	27
2442.58	24
2443.5	22
2444.42	23
2445.34	26
2446.26	26
2447.17	24
2448.09	22
2449.01	28
2449.92	24
2450.84	26
2451.76	28
2452.68	25
2453.59	29
2454.51	32
2455.42	30
2456.34	24
2457.26	26
2458.17	25
2459.09	25
2460	26
2460.92	28
2461.83	30
2462.75	24
2463.66	28
2464.58	30
2465.49	26
2466.41	26
2467.32	26
2468.24	24
2469.15	25
2470.07	24
2470.98	26
2471.89	28
2472.81	25
2473.72	28
2474.64	27
2475.55	28
2476.46	26
2477.37	20
2478.29	28
2479.2	30
2480.11	30
2481.03	30
2481.94	20
2482.85	24
2483.76	26
2484.67	26
2485.59	23
2486.5	30
2487.41	30
2488.32	28
2489.23	20
2490.14	24
2491.05	24
2491.97	29
2492.88	30
2493.79	28
2494.7	31
2495.61	29
2496.52	29
2497.43	30
2498.34	28
2499.25	28
2500.16	25
2501.07	29
2501.98	28
2502.89	26
2503.79	28
2504.7	28
2505.61	26
2506.52	24
2507.43	26
2508.34	25
2509.25	29
2510.16	29
2511.06	29
2511.97	27
2512.88	24
2513.79	27
2514.69	35
2515.6	28
2516.51	26
2517.42	30
2518.32	33
2519.23	29
2520.14	28
2521.04	29
2521.95	30
2522.86	28
2523.76	24
2524.67	24
2525.57	28
2526.48	28
2527.39	25
2528.29	26
2529.2	26
2530.1	29
2531.01	29
2531.91	28
2532.82	27
2533.72	28
2534.63	24
2535.53	28
2536.44	28
2537.34	28
2538.24	29
2539.15	25
2540.05	27
2540.96	24
2541.86	26
2542.76	24
2543.67	26
2544.57	31
2545.47	26
2546.37	27
2547.28	28
2548.18	30
2549.08	24
2549.99	22
2550.89	30
2551.79	24
2552.69	22
2553.59	26
2554.49	28
2555.4	26
2556.3	30
2557.2	28
2558.1	22
2559	28
2559.9	30
2560.8	24
2561.7	27
2562.6	18
2563.5	23
2564.4	25
2565.3	28
2566.2	26
2567.1	28
2568	32
2568.9	30
2569.8	29
2570.7	27
2571.6	25
2572.5	27
2573.4	29
2574.3	27
2575.2	24
2576.1	25
2576.99	25
2577.89	28
2578.79	26
2579.69	29
2580.59	26
2581.48	29
2582.38	26
2583.28	24
2584.18	32
2585.07	28
2585.97	31
2586.87	24
2587.76	32
2588.66	24
2589.56	25
2590.45	23
2591.35	28
2592.25	29
2593.14	29
2594.04	22
2594.93	24
2595.83	29
2596.73	26
2597.62	26
2598.52	28
2599.41	22
2600.31	27
2601.2	26
2602.1	25
2602.99	20
2603.88	28
2604.78	30
2605.67	30
2606.57	29
2607.46	25
2608.35	30
2609.25	29
2610.14	27
2611.03	27
2611.93	20
2612.82	30
2613.71	28
2614.61	26
2615.5	29
2616.39	26
2617.29	24
2618.18	30
2619.07	26
2619.96	24
2620.85	27
2621.75	28
2622.64	30
2623.53	28
2624.42	28
2625.31	32
2626.2	30
2627.09	29
2627.98	31
2628.88	26
2629.77	27
2630.66	26
2631.55	24
2632.44	26
2633.33	32
2634.22	28
2635.11	25
2636	25
2636.89	24
2637.78	27
2638.66	25
2639.55	24
2640.44	23
2641.33	24
2642.22	24
2643.11	24
2644	33
2644.89	26
2645.78	33
2646.66	28
2647.55	30
2648.44	26
2649.33	29
2650.21	26
2651.1	29
2651.99	31
2652.88	31
2653.76	22
2654.65	30
2655.54	27
2656.42	28
2657.31	29
2658.2	25
2659.08	26
2659.97	24
2660.86	22
2661.74	29
2662.63	24
2663.51	28
2664.4	30
2665.29	25
2666.17	28
2667.06	31
2667.94	26
2668.83	23
2669.71	26
2670.6	29
2671.48	26
2672.36	31
2673.25	26
2674.13	29
2675.02	26
2675.9	25
2676.78	29
2677.67	25
2678.55	24
2679.43	29
2680.32	29
2681.2	25
2682.08	30
2682.97	27
2683.85	26
2684.73	29
2685.61	27
2686.5	33
2687.38	18
2688.26	24
2689.14	28
2690.03	26
2690.91	26
2691.79	24
2692.67	28
2693.55	25
2694.43	24
2695.31	26
2696.19	25
2697.08	30
2697.96	22
2698.84	29
2699.72	30
2700.6	27
2701.48	28
2702.36	26
2703.24	26
2704.12	26
2705	28
2705.88	30
2706.76	24
2707.64	27
2708.51	27
2709.39	22
2710.27	30
2711.15	24
2712.03	28
2712.91	26
2713.79	31
2714.67	24
2715.54	34
2716.42	27
2717.3	28
2718.18	25
2719.05	26
2719.93	30
2720.81	28
2721.69	32
2722.56	24
2723.44	28
2724.32	25
2725.19	30
2726.07	22
2726.95	27
2727.82	29
2728.7	26
2729.58	23
2730.45	27
2731.33	30
2732.2	28
2733.08	22
2733.95	28
2734.83	26
2735.7	26
2736.58	29
2737.45	26
2738.33	28
2739.2	27
2740.08	22
2740.95	27
2741.83	23
2742.7	28
2743.58	26
2744.45	29
2745.32	22
2746.2	29
2747.07	34
2747.94	25
2748.82	26
2749.69	28
2750.56	28
2751.44	31
2752.31	31
2753.18	20
2754.05	31
2754.93	27
2755.8	29
2756.67	23
2757.54	26
2758.42	24
2759.29	26
2760.16	26
2761.03	28
2761.9	24
2762.77	30
2763.64	29
2764.51	24
2765.38	27
2766.26	29
2767.13	28
2768	28
2768.87	26
2769.74	28
2770.61	27
2771.48	29
2772.35	27
2773.22	22
2774.09	24
2774.96	27
2775.83	30
2776.7	18
2777.56	23
2778.43	26
2779.3	29
2780.17	27
2781.04	31
2781.91	29
2782.78	28
2783.64	20
2784.51	28
2785.38	27
2786.25	26
2787.12	28
2787.98	32
2788.85	28
2789.72	32
2790.59	30
2791.45	24
2792.32	22
2793.19	28
2794.05	26
2794.92	27
2795.79	27
2796.65	26
2797.52	29
2798.38	29
2799.25	28
2800.12	26
2800.98	26
2801.85	30
2802.71	22
2803.58	26
2804.44	30
2805.31	27
2806.17	27
2807.04	24
2807.9	29
2808.77	28
2809.63	23
2810.5	32
2811.36	29
2812.22	27
2813.09	26
2813.95	22
2814.82	33
2815.68	32
2816.54	30
2817.41	26
2818.27	26
2819.13	24
2820	26
2820.86	32
2821.72	29
2822.58	27
2823.45	27
2824.31	26
2825.17	30
2826.03	30
2826.9	26
2827.76	30
2828.62	29
2829.48	33
2830.34	25
2831.2	24
2832.06	24
2832.92	27
2833.79	29
2834.65	27
2835.51	27
2836.37	26
2837.23	28
2838.09	31
2838.95	23
2839.81	28
2840.67	24
2841.53	29
2842.39	24
2843.25	26
2844.11	31
2844.97	28
2845.83	30
2846.68	30
2847.54	28
2848.4	26
2849.26	28
2850.12	28
2850.98	30
2851.84	24
2852.69	28
2853.55	28
2854.41	26
2855.27	28
2856.13	30
2856.98	27
2857.84	32
2858.7	29
2859.56	28
2860.41	31
2861.27	28
2862.13	32
2862.98	26
2863.84	24
2864.7	26
2865.55	29
2866.41	33
2867.27	27
2868.12	31
2868.98	30
2869.83	26
2870.69	29
2871.54	27
2872.4	28
2873.25	29
2874.11	30
2874.96	28
2875.82	28
2876.68	31
2877.53	26
2878.38	33
2879.24	34
2880.09	22
2880.95	30
2881.8	27
2882.65	33
2883.51	32
2884.36	35
2885.22	32
2886.07	34
2886.92	38
2887.77	38
2888.63	32
2889.48	37
2890.33	36
2891.19	33
2892.04	36
2892.89	39
2893.74	37
2894.6	36
2895.45	38
2896.3	48
2897.15	43
2898	47
2898.85	48
2899.71	46
2900.56	51
2901.41	52
2902.26	48
2903.11	48
2903.96	48
2904.81	48
2905.66	56
2906.51	59
2907.36	55
2908.21	55
2909.06	53
2909.91	52
2910.76	50
2911.61	50
2912.46	52
2913.31	54
2914.16	46
2915.01	40
2915.86	43
2916.71	40
2917.56	39
2918.41	35
2919.26	43
2920.1	24
2920.95	34
2921.8	32
2922.65	31
2923.5	28
2924.34	32
2925.19	27
2926.04	28
2926.89	32
2927.74	30
2928.58	24
2929.43	26
2930.28	30
2931.12	34
2931.97	28
2932.82	30
2933.66	31
2934.51	30
2935.36	24
2936.2	29
2937.05	28
2937.89	26
2938.74	32
2939.59	35
2940.43	25
2941.28	27
2942.12	26
2942.97	30
2943.81	32
2944.66	30
2945.5	24
2946.35	30
2947.19	30
2948.04	35
2948.88	28
2949.72	31
2950.57	28
2951.41	32
2952.26	32
2953.1	32
2953.94	35
2954.79	34
2955.63	33
2956.47	32
2957.32	36
2958.16	36
2959	32
2959.85	32
2960.69	37
2961.53	38
2962.37	38
2963.22	32
2964.06	41
2964.9	42
2965.74	35
2966.58	40
2967.42	36
2968.27	36
2969.11	39
2969.95	30
2970.79	38
2971.63	41
2972.47	39
2973.31	36
2974.15	35
2974.99	32
2975.83	28
2976.68	35
2977.52	31
2978.36	27
2979.2	26
2980.04	34
2980.88	33
2981.71	28
2982.55	30
2983.39	29
2984.23	29
2985.07	28
2985.91	28
2986.75	29
2987.59	31
2988.43	28
2989.27	28
2990.1	27
2990.94	23
2991.78	27
2992.62	26
2993.46	26
2994.3	26
2995.13	21
2995.97	30
2996.81	24
2997.64	28
2998.48	31
2999.32	27
