#Acq. time (s)=	3
#Accumulations=	3
#Range (cm-¹)=	100...3000
#Windows=	3
#Autofocus=	Off
#AutoExposure=	Off
#Spike filter=	Multiple accum.
#Delay time (s)=	0
#Binning=	1
#Readout mode=	Signal
#DeNoise=	Off
#ICS correction=	Off
#Dark correction=	Off
#Inst. Process=	Off
#Instrument=	LabRAM HR Evol
#Detector=	Syncerity OE
#Objective=	x100_VIS_LWD
#Grating=	600 (500nm)
#ND Filter=	25%
#Laser=	633nm_Edge
#Hole=	100.021
#Range=	Visible
#Project=	Bolus
#Sample=	B2
#Site=	stripside
#Title=	m12
#Remark=	
#Date=	03.11.2025 17:57
#Acquired=	03.11.2025 17:57:56
100.969	31
102.252	34
103.535	34
104.818	36
106.101	34
107.384	34
108.666	35
109.948	34
111.232	32
112.514	32
113.795	30
115.077	30
116.358	28
117.639	24
118.919	34
120.2	35
121.48	34
122.76	35
124.04	33
125.32	34
126.599	36
127.879	35
129.158	28
130.436	38
131.715	36
132.992	32
134.27	30
135.548	38
136.826	32
138.104	40
139.381	35
140.658	42
141.935	35
143.212	41
144.489	41
145.763	38
147.04	32
148.315	42
149.591	38
150.867	41
152.142	42
153.416	36
154.691	41
155.965	39
157.24	40
158.514	48
159.786	43
161.06	43
162.334	38
163.607	40
164.881	42
166.152	44
167.425	46
168.698	36
169.969	42
171.241	36
172.513	37
173.785	46
175.055	38
176.326	49
177.597	41
178.867	44
180.137	38
181.408	40
182.677	39
183.947	39
185.217	40
186.485	43
187.755	44
189.022	40
190.291	44
191.56	46
192.828	41
194.096	40
195.363	40
196.631	42
197.899	42
199.165	34
200.432	43
201.698	42
202.965	42
204.23	36
205.497	39
206.762	35
208.028	32
209.293	36
210.559	40
211.823	35
213.088	34
214.352	26
215.617	32
216.88	36
218.145	39
219.408	36
220.672	32
221.934	34
223.196	34
224.46	34
225.722	30
226.985	34
228.246	33
229.508	39
230.77	29
232.031	34
233.292	34
234.554	34
235.814	34
237.074	32
238.335	35
239.595	34
240.854	34
242.115	35
243.374	30
244.633	32
245.893	31
247.151	35
248.409	29
249.667	28
250.927	25
252.184	30
253.442	32
254.699	30
255.957	32
257.214	30
258.47	31
259.727	29
260.983	32
262.24	32
263.496	28
264.752	35
266.007	26
267.262	32
268.517	35
269.773	30
271.028	28
272.282	32
273.536	28
274.79	28
276.044	32
277.297	28
278.551	27
279.804	33
281.057	26
282.31	32
283.564	32
284.816	30
286.068	31
287.32	23
288.572	34
289.823	32
291.074	30
292.325	32
293.576	29
294.827	33
296.077	30
297.328	32
298.578	32
299.828	34
301.077	37
302.325	27
303.575	31
304.824	30
306.073	28
307.321	28
308.57	32
309.818	38
311.066	31
312.314	34
313.562	31
314.808	32
316.055	32
317.302	30
318.549	34
319.796	32
321.042	30
322.288	29
323.533	28
324.779	30
326.024	36
327.27	34
328.515	34
329.759	33
331.004	34
332.248	35
333.493	32
334.736	24
335.98	26
337.223	32
338.466	32
339.709	32
340.952	31
342.195	30
343.437	28
344.68	28
345.922	26
347.163	26
348.405	29
349.647	31
350.887	31
352.128	32
353.37	34
354.609	24
355.85	31
357.089	24
358.33	24
359.57	26
360.809	20
362.049	30
363.287	28
364.526	29
365.764	31
367.003	22
368.241	24
369.479	36
370.718	29
371.955	24
373.193	30
374.429	28
375.667	33
376.903	27
378.139	28
379.376	28
380.611	34
381.848	36
383.083	32
384.319	30
385.554	31
386.79	34
388.024	30
389.258	30
390.493	33
391.727	31
392.962	30
394.195	28
395.428	33
396.663	33
397.895	36
399.128	28
400.361	26
401.593	29
402.825	26
404.058	26
405.29	32
406.521	31
407.752	34
408.985	33
410.215	30
411.446	27
412.678	30
413.908	33
415.138	30
416.367	28
417.597	32
418.828	33
420.057	33
421.286	28
422.514	28
423.743	29
424.973	30
426.201	32
427.429	30
428.657	34
429.884	31
431.112	26
432.34	30
433.567	34
434.794	32
436.02	29
437.247	35
438.473	34
439.699	28
440.925	34
442.15	28
443.376	31
444.601	30
445.826	25
447.051	26
448.275	25
449.5	32
450.724	33
451.948	37
453.172	30
454.396	28
455.619	30
456.842	28
458.065	31
459.288	36
460.511	30
461.733	32
462.956	32
464.178	36
465.4	35
466.621	30
467.843	35
469.064	30
470.285	36
471.505	38
472.726	34
473.946	36
475.166	34
476.387	34
477.606	39
478.825	46
480.044	44
481.264	49
482.483	57
483.702	52
484.921	56
486.138	52
487.356	60
488.574	57
489.792	58
491.009	59
492.226	48
493.444	53
494.661	51
495.877	60
497.094	53
498.31	44
499.525	50
500.741	46
501.958	48
503.172	34
504.388	40
505.603	40
506.817	32
508.032	34
509.247	39
510.46	28
511.675	41
512.888	35
514.102	34
515.316	40
516.528	30
517.742	35
518.954	34
520.167	38
521.378	35
522.591	30
523.802	28
525.015	28
526.226	28
527.438	38
528.648	32
529.86	28
531.07	31
532.281	34
533.491	30
534.702	35
535.911	32
537.121	32
538.33	34
539.54	33
540.749	26
541.957	30
543.167	31
544.375	28
545.584	37
546.791	38
547.999	30
549.207	36
550.414	32
551.621	30
552.829	32
554.035	30
555.241	35
556.449	32
557.655	30
558.86	32
560.066	34
561.272	30
562.477	28
563.682	32
564.888	30
566.093	28
567.297	32
568.501	34
569.705	32
570.91	28
572.114	31
573.317	35
574.52	28
575.723	30
576.927	30
578.13	32
579.332	33
580.535	28
581.737	29
582.938	33
584.14	31
585.343	33
586.544	27
587.745	34
588.946	28
590.147	33
591.347	26
592.548	34
593.748	31
594.948	34
596.147	30
597.347	26
598.546	30
599.745	35
600.944	34
602.143	28
603.342	28
604.54	31
605.738	33
606.937	32
608.134	32
609.332	30
610.529	29
611.727	29
612.924	30
614.121	35
615.317	33
616.513	36
617.709	28
618.905	32
620.101	28
621.297	26
622.492	30
623.688	34
624.883	34
626.077	26
627.271	32
628.466	32
629.66	32
630.855	30
632.047	32
633.241	22
634.435	36
635.629	30
636.82	33
638.014	34
639.207	27
640.399	33
641.59	32
642.783	36
643.975	34
645.166	30
646.357	28
647.549	30
648.741	26
649.93	28
651.122	30
652.311	31
653.502	26
654.692	32
655.881	26
657.071	33
658.261	28
659.45	30
660.639	33
661.827	26
663.016	28
664.204	28
665.393	33
666.581	37
667.769	31
668.957	32
670.143	34
671.331	32
672.518	37
673.705	34
674.891	29
676.078	32
677.264	34
678.451	34
679.636	36
680.821	30
682.007	34
683.192	34
684.378	32
685.562	35
686.747	37
687.931	35
689.115	36
690.3	34
691.483	34
692.666	37
693.851	31
695.034	38
696.216	38
697.4	38
698.582	34
699.764	39
700.948	36
702.129	32
703.311	44
704.493	51
705.674	44
706.855	50
708.036	46
709.218	55
710.399	52
711.579	50
712.759	37
713.939	42
715.12	46
716.299	44
717.478	38
718.657	32
719.836	34
721.015	32
722.195	34
723.373	37
724.552	33
725.729	34
726.907	30
728.085	32
729.262	28
730.44	35
731.617	37
732.795	32
733.972	30
735.148	29
736.324	32
737.501	28
738.677	34
739.852	31
741.028	33
742.203	31
743.379	28
744.554	32
745.729	34
746.903	32
748.078	35
749.252	30
750.426	32
751.599	32
752.772	34
753.946	28
755.119	28
756.293	29
757.466	28
758.639	28
759.811	32
760.984	28
762.155	26
763.327	30
764.499	30
765.67	28
766.842	30
768.013	29
769.183	27
770.354	29
771.525	26
772.696	36
773.865	28
775.035	34
776.205	37
777.375	31
778.544	30
779.713	31
780.882	32
782.052	34
783.219	30
784.388	32
785.557	38
786.724	36
787.892	31
789.06	32
790.227	36
791.395	32
792.562	32
793.728	29
794.895	36
796.061	30
797.228	36
798.395	35
799.56	34
800.726	35
801.891	29
803.057	30
804.221	32
805.387	29
806.551	29
807.716	29
808.879	24
810.044	26
811.208	34
812.372	32
813.535	34
814.699	31
815.862	30
817.025	25
818.188	35
819.351	30
820.513	30
821.675	32
822.837	34
823.999	32
825.161	34
826.322	32
827.483	26
828.645	34
829.805	33
830.966	31
832.127	24
833.287	31
834.447	34
835.607	30
836.767	32
837.926	28
839.085	31
840.245	30
841.404	29
842.562	36
843.72	28
844.88	28
846.038	25
847.195	32
848.353	28
849.512	30
850.669	30
851.826	29
852.983	28
854.139	32
855.296	32
856.453	35
857.609	30
858.765	26
859.921	30
861.077	30
862.232	30
863.387	28
864.542	34
865.697	24
866.852	34
868.008	30
869.162	26
870.316	28
871.47	31
872.624	32
873.778	33
874.931	30
876.084	32
877.237	31
878.39	32
879.543	26
880.695	31
881.846	33
882.999	34
884.151	33
885.302	26
886.454	33
887.606	29
888.757	30
889.908	36
891.059	32
892.21	32
893.359	28
894.509	34
895.659	30
896.81	27
897.959	29
899.109	35
900.257	25
901.407	30
902.556	33
903.705	32
904.854	31
906.001	26
907.149	28
908.298	32
909.446	28
910.592	32
911.74	26
912.888	35
914.034	29
915.181	31
916.328	29
917.473	26
918.62	28
919.766	31
920.911	26
922.058	32
923.204	31
924.348	35
925.494	33
926.638	30
927.783	31
928.928	32
930.072	27
931.216	30
932.36	33
933.504	28
934.647	32
935.791	32
936.933	28
938.077	28
939.219	27
940.363	33
941.504	26
942.647	28
943.789	26
944.932	30
946.073	30
947.215	34
948.356	33
949.498	30
950.638	32
951.778	30
952.92	26
954.06	30
955.199	30
956.34	28
957.479	30
958.62	28
959.759	31
960.898	22
962.038	31
963.176	30
964.315	20
965.453	30
966.592	28
967.73	26
968.867	28
970.006	22
971.144	24
972.281	26
973.418	34
974.554	26
975.692	31
976.829	31
977.965	34
979.101	32
980.237	28
981.374	28
982.509	36
983.645	33
984.78	24
985.915	32
987.05	26
988.184	24
989.319	22
990.453	27
991.589	31
992.722	28
993.856	32
994.99	32
996.123	32
997.257	32
998.39	22
999.523	26
1000.66	30
1001.79	26
1002.92	26
1004.05	30
1005.18	32
1006.32	31
1007.45	32
1008.58	30
1009.71	26
1010.84	32
1011.97	27
1013.1	25
1014.23	30
1015.36	29
1016.49	27
1017.62	28
1018.75	26
1019.88	29
1021.01	28
1022.14	28
1023.27	26
1024.4	28
1025.53	30
1026.66	26
1027.79	23
1028.91	26
1030.04	25
1031.17	29
1032.3	30
1033.42	27
1034.55	28
1035.68	24
1036.81	27
1037.93	26
1039.06	22
1040.18	24
1041.31	30
1042.44	30
1043.56	28
1044.69	24
1045.81	30
1046.94	30
1048.06	29
1049.19	28
1050.31	24
1051.44	27
1052.56	33
1053.69	26
1054.81	28
1055.93	28
1057.06	28
1058.18	28
1059.3	31
1060.43	33
1061.55	28
1062.67	28
1063.79	28
1064.92	28
1066.04	29
1067.16	24
1068.28	28
1069.4	25
1070.52	30
1071.65	18
1072.77	26
1073.89	31
1075.01	28
1076.13	26
1077.25	24
1078.37	30
1079.49	27
1080.61	28
1081.73	27
1082.85	27
1083.97	26
1085.09	26
1086.2	28
1087.32	30
1088.44	24
1089.56	30
1090.68	26
1091.8	29
1092.91	28
1094.03	30
1095.15	26
1096.26	26
1097.38	28
1098.5	32
1099.61	29
1100.73	26
1101.85	27
1102.96	26
1104.08	28
1105.19	31
1106.31	26
1107.43	24
1108.54	32
1109.66	24
1110.77	29
1111.88	26
1113	31
1114.11	28
1115.23	29
1116.34	27
1117.46	28
1118.57	26
1119.68	24
1120.8	26
1121.91	24
1123.02	28
1124.13	22
1125.25	30
1126.36	28
1127.47	25
1128.58	29
1129.69	25
1130.8	25
1131.92	32
1133.03	27
1134.14	26
1135.25	26
1136.36	24
1137.47	26
1138.58	28
1139.69	26
1140.8	16
1141.91	28
1143.02	28
1144.13	28
1145.24	27
1146.35	30
1147.46	24
1148.56	29
1149.67	26
1150.78	28
1151.89	28
1153	16
1154.1	30
1155.21	24
1156.32	29
1157.43	28
1158.53	32
1159.64	22
1160.75	29
1161.85	24
1162.96	27
1164.07	30
1165.17	31
1166.28	28
1167.38	29
1168.49	32
1169.59	28
1170.7	27
1171.8	30
1172.91	28
1174.01	30
1175.12	26
1176.22	30
1177.32	26
1178.43	30
1179.53	24
1180.64	27
1181.74	28
1182.84	27
1183.94	26
1185.05	29
1186.15	26
1187.25	25
1188.35	27
1189.46	27
1190.56	30
1191.66	30
1192.76	24
1193.86	28
1194.96	24
1196.06	25.0245
1197.16	24.0302
1198.26	25.9813
1199.37	24.0458
1200.47	26.0088
1201.57	23.9804
1202.67	33.3148
1203.77	27.9318
1204.86	27.8229
1205.96	24.1964
1207.06	29.257
1208.16	25.6227
1209.26	22.6127
1210.36	26.9328
1211.46	27.0008
1212.56	25.7739
1213.65	26.3484
1214.75	25.9121
1215.85	25.4732
1216.95	25.5861
1218.04	28.7037
1219.14	26.9012
1220.24	24.0317
1221.33	23.5392
1222.43	29.4935
1223.53	29.0494
1224.62	24.2313
1225.72	24.5392
1226.82	28.7606
1227.91	27.7558
1229.01	29.044
1230.1	26.7479
1231.2	25.0623
1232.29	28.0913
1233.39	26.1267
1234.48	26.0029
1235.58	28.6479
1236.67	26.6593
1237.77	29.7214
1238.86	28.8382
1239.95	23.685
1241.05	26.7939
1242.14	23.1356
1243.23	28.3794
1244.33	28.8689
1245.42	25.411
1246.51	25.7109
1247.61	25.7927
1248.7	28.7631
1249.79	26.4412
1250.88	24.6312
1251.97	27.8605
1253.07	25.6714
1254.16	27.6583
1255.25	27.3241
1256.34	28.8223
1257.43	24.9489
1258.52	29.7059
1259.61	29.2794
1260.7	28.4167
1261.79	26.6875
1262.88	26.0897
1263.97	26.2048
1265.06	28.7076
1266.15	26.4582
1267.24	29.0448
1268.33	25.6031
1269.42	26.4989
1270.51	26.819
1271.6	28.1172
1272.68	27.861
1273.77	29.6274
1274.86	28.604
1275.95	27.546
1277.04	26.543
1278.12	28.3191
1279.21	25.7032
1280.3	28.63
1281.39	28.0308
1282.47	25.3203
1283.56	26.5117
1284.65	28.2392
1285.73	23.5138
1286.82	26.1849
1287.91	29.7307
1288.99	27.9394
1290.08	28.4611
1291.16	23.6052
1292.25	23.5187
1293.33	29.7549
1294.42	28.615
1295.5	24.8794
1296.59	28.2007
1297.67	26.5985
1298.76	29.581
1299.84	24.9413
1300.92	18.7113
1302.01	22.8358
1303.09	29.3984
1304.17	24.4309
1305.26	28.6011
1306.34	25.237
1307.34	28
1308.43	28
1309.52	29
1310.61	31
1311.7	27
1312.78	27
1313.87	29
1314.96	26
1316.04	24
1317.13	24
1318.22	22
1319.3	28
1320.39	28
1321.48	32
1322.56	26
1323.65	24
1324.73	22
1325.82	22
1326.9	28
1327.99	28
1329.07	27
1330.16	26
1331.24	29
1332.33	27
1333.41	24
1334.5	29
1335.58	27
1336.66	31
1337.75	26
1338.83	29
1339.91	29
1341	29
1342.08	30
1343.16	26
1344.24	28
1345.33	29
1346.41	24
1347.49	30
1348.57	31
1349.65	32
1350.74	25
1351.82	30
1352.9	27
1353.98	31
1355.06	29
1356.14	30
1357.22	27
1358.3	26
1359.38	29
1360.46	28
1361.54	29
1362.62	24
1363.7	34
1364.78	28
1365.86	29
1366.94	29
1368.02	27
1369.09	29
1370.17	29
1371.25	32
1372.33	27
1373.41	27
1374.48	25
1375.56	31
1376.64	29
1377.72	31
1378.79	26
1379.87	24
1380.95	32
1382.02	28
1383.1	32
1384.17	31
1385.25	28
1386.33	28
1387.4	28
1388.48	31
1389.55	29
1390.63	30
1391.7	27
1392.78	26
1393.85	30
1394.93	26
1396	30
1397.07	31
1398.15	30
1399.22	27
1400.3	30
1401.37	32
1402.44	31
1403.52	30
1404.59	24
1405.66	33
1406.73	32
1407.81	33
1408.88	35
1409.95	30
1411.02	33
1412.09	32
1413.17	33
1414.24	31
1415.31	38
1416.38	36
1417.45	28
1418.52	33
1419.59	28
1420.66	29
1421.73	26
1422.8	31
1423.87	28
1424.94	30
1426.01	32
1427.08	32
1428.15	29
1429.22	26
1430.29	32
1431.35	28
1432.42	33
1433.49	29
1434.56	28
1435.63	28
1436.69	22
1437.76	26
1438.83	29
1439.9	23
1440.96	28
1442.03	24
1443.1	25
1444.17	28
1445.23	33
1446.3	24
1447.36	28
1448.43	29
1449.49	26
1450.56	29
1451.63	26
1452.69	32
1453.76	26
1454.82	28
1455.89	29
1456.95	28
1458.01	24
1459.08	26
1460.14	30
1461.21	27
1462.27	27
1463.34	27
1464.4	30
1465.46	26
1466.52	31
1467.59	29
1468.65	31
1469.71	24
1470.77	29
1471.84	30
1472.9	26
1473.96	28
1475.02	29
1476.08	28
1477.15	28
1478.21	24
1479.27	27
1480.33	30
1481.39	28
1482.45	24
1483.51	27
1484.57	27
1485.63	18
1486.69	33
1487.75	33
1488.81	31
1489.87	32
1490.93	28
1491.99	28
1493.05	26
1494.1	28
1495.16	29
1496.22	28
1497.28	24
1498.34	28
1499.4	28
1500.45	27
1501.51	30
1502.57	25
1503.63	28
1504.68	28
1505.74	28
1506.8	29
1507.85	30
1508.91	22
1509.97	32
1511.02	28
1512.08	28
1513.13	24
1514.19	28
1515.24	29
1516.3	28
1517.35	30
1518.41	30
1519.46	28
1520.52	29
1521.57	33
1522.63	21
1523.68	26
1524.73	29
1525.79	24
1526.84	26
1527.9	29
1528.95	25
1530	30
1531.05	25
1532.11	30
1533.16	29
1534.21	32
1535.26	28
1536.32	28
1537.37	30
1538.42	29
1539.47	26
1540.52	31
1541.57	30
1542.63	27
1543.68	26
1544.73	26
1545.78	25
1546.83	28
1547.88	26
1548.93	27
1549.98	26
1551.03	29
1552.08	26
1553.13	30
1554.18	28
1555.23	28
1556.27	28
1557.32	27
1558.37	33
1559.42	27
1560.47	28
1561.52	28
1562.56	32
1563.61	28
1564.66	27
1565.71	29
1566.75	28
1567.8	26
1568.85	28
1569.9	30
1570.94	28
1571.99	26
1573.03	28
1574.08	26
1575.13	26
1576.17	28
1577.22	24
1578.26	30
1579.31	30
1580.35	28
1581.4	28
1582.44	29
1583.49	27
1584.53	31
1585.58	28
1586.62	29
1587.66	24
1588.71	24
1589.75	28
1590.8	33
1591.84	23
1592.88	26
1593.92	30
1594.97	28
1596.01	30
1597.05	34
1598.1	30
1599.14	27
1600.18	27
1601.22	27
1602.26	32
1603.3	27
1604.35	30
1605.39	28
1606.43	29
1607.47	26
1608.51	28
1609.55	22
1610.59	30
1611.63	29
1612.67	24
1613.71	28
1614.75	28
1615.79	28
1616.83	22
1617.87	34
1618.91	32
1619.95	30
1620.99	29
1622.02	24
1623.06	22
1624.1	27
1625.14	27
1626.18	24
1627.21	27
1628.25	35
1629.29	26
1630.33	26
1631.36	29
1632.4	31
1633.44	24
1634.48	27
1635.51	30
1636.55	28
1637.58	25
1638.62	27
1639.66	29
1640.69	29
1641.73	24
1642.76	27
1643.8	27
1644.83	29
1645.87	24
1646.9	28
1647.94	28
1648.97	32
1650	34
1651.04	25
1652.07	26
1653.11	28
1654.14	29
1655.17	26
1656.21	27
1657.24	25
1658.27	28
1659.31	32
1660.34	30
1661.37	26
1662.4	27
1663.43	28
1664.47	30
1665.5	30
1666.53	30
1667.56	28
1668.59	25
1669.62	31
1670.66	28
1671.69	28
1672.72	28
1673.75	33
1674.78	24
1675.81	28
1676.84	28
1677.87	30
1678.9	22
1679.93	25
1680.96	28
1681.98	30
1683.01	31
1684.04	30
1685.07	28
1686.1	28
1687.13	34
1688.16	30
1689.18	26
1690.21	28
1691.24	30
1692.27	24
1693.3	22
1694.32	28
1695.35	28
1696.38	26
1697.4	25
1698.43	28
1699.46	28
1700.48	32
1701.51	32
1702.54	28
1703.56	31
1704.59	27
1705.61	25
1706.64	30
1707.66	22
1708.69	26
1709.71	30
1710.74	27
1711.76	26
1712.79	26
1713.81	30
1714.83	23
1715.86	29
1716.88	30
1717.91	25
1718.93	26
1719.95	27
1720.98	29
1722	24
1723.02	24
1724.04	20
1725.07	30
1726.09	24
1727.11	33
1728.13	26
1729.15	30
1730.18	25
1731.2	31
1732.22	28
1733.24	27
1734.26	28
1735.28	30
1736.3	29
1737.32	31
1738.34	29
1739.36	28
1740.38	30
1741.4	26
1742.42	30
1743.44	28
1744.46	28
1745.48	27
1746.5	28
1747.52	31
1748.54	30
1749.56	22
1750.58	26
1751.6	27
1752.61	24
1753.63	23
1754.65	29
1755.67	28
1756.68	27
1757.7	26
1758.72	32
1759.74	30
1760.75	32
1761.77	27
1762.79	30
1763.8	28
1764.82	28
1765.83	29
1766.85	29
1767.87	27
1768.88	26
1769.9	29
1770.91	30
1771.93	24
1772.94	26
1773.96	24
1774.97	29
1775.99	26
1777	28
1778.02	24
1779.03	28
1780.04	26
1781.06	32
1782.07	25
1783.09	30
1784.1	33
1785.11	26
1786.13	26
1787.14	32
1788.15	35
1789.16	29
1790.18	29
1791.19	25
1792.2	29
1793.21	30
1794.22	24
1795.23	28
1796.25	27
1797.26	27
1798.27	28
1799.28	26
1800.29	33
1801.3	34
1802.31	35
1803.32	29
1804.33	24
1805.34	31
1806.35	28
1807.36	29
1808.37	30
1809.38	28
1810.39	26
1811.4	26
1812.41	29
1813.42	30
1814.42	30
1815.43	26
1816.44	30
1817.45	26
1818.46	26
1819.47	27
1820.47	28
1821.48	30
1822.49	26
1823.49	26
1824.5	32
1825.51	26
1826.52	26
1827.52	27
1828.53	28
1829.53	23
1830.54	28
1831.55	29
1832.55	26
1833.56	27
1834.56	30
1835.57	22
1836.57	22
1837.58	26
1838.58	20
1839.59	26
1840.59	34
1841.6	23
1842.6	30
1843.61	32
1844.61	24
1845.61	24
1846.62	26
1847.62	28
1848.62	25
1849.63	30
1850.63	20
1851.63	30
1852.64	26
1853.64	24
1854.64	31
1855.64	30
1856.64	28
1857.65	28
1858.65	31
1859.65	28
1860.65	28
1861.65	28
1862.65	24
1863.65	30
1864.66	24
1865.66	28
1866.66	29
1867.66	24
1868.66	30
1869.66	27
1870.66	30
1871.66	26
1872.66	27
1873.66	26
1874.66	28
1875.65	28
1876.65	26
1877.65	29
1878.65	28
1879.65	28
1880.65	26
1881.65	28
1882.64	24
1883.64	25
1884.64	26
1885.64	31
1886.63	28
1887.63	30
1888.63	29
1889.63	22
1890.62	30
1891.62	28
1892.62	28
1893.61	29
1894.61	24
1895.6	30
1896.6	26
1897.6	22
1898.59	24
1899.59	27
1900.58	27
1901.58	26
1902.57	27
1903.57	31
1904.56	25
1905.56	26
1906.55	25
1907.54	32
1908.54	30
1909.53	29
1910.53	28
1911.52	24
1912.51	24
1913.51	31
1914.5	27
1915.49	28
1916.49	28
1917.48	22
1918.47	30
1919.46	23
1920.46	27
1921.45	29
1922.44	26
1923.43	26
1924.42	30
1925.41	27
1926.41	24
1927.4	28
1928.39	25
1929.38	28
1930.37	29
1931.36	29
1932.35	24
1933.34	28
1934.33	26
1935.32	30
1936.31	25
1937.3	27
1938.29	24
1939.28	26
1940.27	29
1941.26	28
1942.24	25
1943.23	26
1944.22	30
1945.21	26
1946.2	16
1947.19	30
1948.17	22
1949.16	30
1950.15	28.5
1951.14	27
1952.12	26
1953.11	27
1954.1	25
1955.09	30
1956.07	24
1957.06	18
1958.05	26
1959.03	28
1960.02	31
1961	30
1961.99	26
1962.98	22
1963.96	26
1964.95	27
1965.93	24
1966.92	28
1967.9	25
1968.89	29
1969.87	26
1970.85	29
1971.84	26
1972.82	23
1973.81	23
1974.79	24
1975.78	23
1976.76	24
1977.74	25
1978.73	20
1979.71	30
1980.69	27
1981.67	22
1982.66	22
1983.64	26
1984.62	20
1985.6	25
1986.59	26
1987.57	26
1988.55	32
1989.53	27
1990.51	29
1991.49	26
1992.47	29
1993.45	24
1994.44	26
1995.42	27
1996.4	30
1997.38	30
1998.36	24
1999.34	24
2000.32	32
2001.3	27
2002.28	20
2003.26	29
2004.24	20
2005.22	27
2006.19	28
2007.17	21
2008.15	32
2009.13	31
2010.11	26
2011.09	30
2012.06	26
2013.04	25
2014.02	26
2015	32
2015.98	24
2016.95	26
2017.93	30
2018.91	27
2019.88	29
2020.86	25
2021.84	31
2022.81	18
2023.79	24
2024.77	24
2025.74	26
2026.72	29
2027.69	28
2028.67	24
2029.65	28
2030.62	27
2031.6	24
2032.57	24
2033.55	27
2034.52	28
2035.5	24
2036.47	28
2037.44	22
2038.42	29
2039.39	22
2040.36	22
2041.34	29
2042.31	30
2043.29	24
2044.26	33
2045.23	25
2046.2	26
2047.18	24
2048.15	28
2049.12	24
2050.09	26
2051.07	26
2052.04	22
2053.01	22
2053.98	28
2054.95	25
2055.93	28
2056.9	26
2057.87	27
2058.84	28
2059.81	25
2060.78	26
2061.75	24
2062.72	31
2063.69	32
2064.66	28
2065.63	27
2066.6	29
2067.57	25
2068.54	25
2069.51	31
2070.48	28
2071.45	26
2072.42	24
2073.38	26
2074.35	24
2075.32	26
2076.29	26
2077.26	26
2078.23	30
2079.19	28
2080.16	28
2081.13	24
2082.1	20
2083.06	26
2084.03	27
2085	26
2085.96	22
2086.93	25
2087.9	25
2088.86	26
2089.83	33
2090.8	24
2091.76	28
2092.73	24
2093.69	24
2094.66	28
2095.62	23
2096.59	29
2097.55	20
2098.52	26
2099.48	30
2100.45	25
2101.41	22
2102.38	27
2103.34	28
2104.31	26
2105.27	29
2106.23	27
2107.2	26
2108.16	26
2109.12	27
2110.09	27
2111.05	26
2112.01	27
2112.98	23
2113.94	28
2114.9	29
2115.86	26
2116.82	26
2117.79	30
2118.75	30
2119.71	28
2120.67	29
2121.63	23
2122.59	29
2123.55	23
2124.52	24
2125.48	28
2126.44	24
2127.4	20
2128.36	27
2129.32	26
2130.28	28
2131.24	31
2132.2	27
2133.16	26
2134.12	30
2135.08	26
2136.04	28
2136.99	29
2137.95	26
2138.91	29
2139.87	27
2140.83	20
2141.79	27
2142.75	28
2143.7	25
2144.66	28
2145.62	29.9799
2146.58	25.0013
2147.53	27.9552
2148.49	27.0231
2149.45	24.0034
2150.41	24.0271
2151.36	22.7193
2152.32	27.9043
2153.27	29.3519
2154.23	24.1717
2155.19	26.6025
2156.14	24.2162
2157.1	20.4902
2158.06	26.6314
2159.01	23.2646
2159.97	22.7501
2160.92	25.669
2161.88	25.1458
2162.83	25.4612
2163.79	27.1912
2164.74	24.8039
2165.7	28.3716
2166.65	27.1239
2167.61	26.1754
2168.56	26.6669
2169.51	26.0444
2170.47	21.0303
2171.42	24.9432
2172.38	29.7396
2173.33	26.4072
2174.28	25.4182
2175.24	25.6039
2176.19	24.5128
2177.14	23.4954
2178.09	27.1722
2179.05	27.9559
2180	25.0167
2180.95	28.1669
2181.9	26.3898
2182.86	25.961
2183.81	24.3313
2184.76	24.6794
2185.71	27.1667
2186.66	24.8529
2187.61	21.4558
2188.57	24.3746
2189.52	24.9738
2190.47	24.2623
2191.42	24.0905
2192.37	23.8677
2193.32	26.592
2194.27	24.7211
2195.22	22.9706
2196.17	24.689
2197.12	26.8789
2198.07	27.132
2199.02	25.7929
2199.97	23.3075
2200.92	23.807
2201.87	25.9792
2202.82	26.3725
2203.76	25.4628
2204.71	26.2046
2205.66	23.7284
2206.61	27.8141
2207.56	27.2677
2208.51	26.4658
2209.45	27.5151
2210.4	29.3471
2211.35	28.1413
2212.3	24.5695
2213.24	25.4729
2214.19	27.3486
2215.14	25.7206
2216.09	24.7042
2217.03	24.6265
2217.98	21.0873
2218.93	25.4811
2219.87	26.4627
2220.82	26.6618
2221.77	26.6324
2222.71	27.9852
2223.66	26.518
2224.6	24.5512
2225.55	27.898
2226.49	25.2535
2227.44	25.522
2228.38	24.8862
2229.33	23.3493
2230.27	25.5483
2231.22	26.3394
2232.16	24.9937
2233.11	27.3173
2234.05	27.1386
2235	26.9932
2235.94	27.555
2236.88	24.1877
2237.83	23.3235
2238.77	26.4005
2239.71	26.7767
2240.66	22.4557
2241.6	24.6467
2242	28
2242.95	25
2243.9	24
2244.84	31
2245.79	24
2246.74	23
2247.69	28
2248.63	26
2249.58	23
2250.53	23
2251.47	27
2252.42	26
2253.37	23
2254.31	27
2255.26	21
2256.2	26
2257.15	22
2258.1	26
2259.04	26
2259.99	28
2260.93	26
2261.88	26
2262.82	26
2263.77	26
2264.71	22
2265.65	24
2266.6	26
2267.54	28
2268.49	30
2269.43	22
2270.38	27
2271.32	32
2272.26	29
2273.21	26
2274.15	28
2275.09	22
2276.04	28
2276.98	24
2277.92	28
2278.86	24
2279.81	26
2280.75	27
2281.69	25
2282.63	22
2283.57	23
2284.52	27
2285.46	26
2286.4	25
2287.34	24
2288.28	26
2289.22	26
2290.16	26
2291.1	23
2292.04	27
2292.98	25
2293.93	26
2294.86	27
2295.8	26
2296.74	30
2297.69	22
2298.62	22
2299.56	28
2300.5	22
2301.44	29
2302.38	28
2303.32	26
2304.26	23
2305.2	24
2306.14	28
2307.07	24
2308.01	26
2308.95	26
2309.89	23
2310.83	20
2311.76	27
2312.7	30
2313.64	26
2314.58	26
2315.51	28
2316.45	26
2317.39	29
2318.32	27
2319.26	27
2320.2	28
2321.13	26
2322.07	24
2323	31
2323.94	24
2324.88	26
2325.81	26
2326.75	29
2327.68	26
2328.62	26
2329.55	24
2330.49	28
2331.42	22
2332.36	26
2333.29	24
2334.22	28
2335.16	30
2336.09	28
2337.03	31
2337.96	28
2338.89	22
2339.83	29
2340.76	26
2341.69	28
2342.63	26
2343.56	24
2344.49	24
2345.43	25
2346.36	29
2347.29	26
2348.22	24
2349.15	33
2350.09	24
2351.02	28
2351.95	25
2352.88	28
2353.81	22
2354.74	28
2355.67	20
2356.61	25
2357.54	26
2358.47	22
2359.4	31
2360.33	32
2361.26	27
2362.19	26
2363.12	27
2364.05	26
2364.98	22
2365.91	20
2366.84	28
2367.77	25
2368.7	26
2369.62	28
2370.55	24
2371.48	22
2372.41	28
2373.34	27
2374.27	29
2375.2	26
2376.12	28
2377.05	26
2377.98	28
2378.91	22
2379.83	24
2380.76	24
2381.69	25
2382.62	30
2383.54	25
2384.47	27
2385.4	27
2386.32	28
2387.25	24
2388.18	28
2389.1	22
2390.03	30
2390.95	26
2391.88	28
2392.81	26
2393.73	26
2394.66	27
2395.58	28
2396.51	27
2397.43	30
2398.36	28
2399.28	28
2400.2	23
2401.13	25
2402.05	23
2402.98	28
2403.9	26
2404.83	32
2405.75	24
2406.67	28
2407.6	30
2408.52	28
2409.44	21
2410.37	28
2411.29	28
2412.21	26
2413.13	29
2414.06	25
2414.98	30
2415.9	28
2416.82	26
2417.74	26
2418.67	23
2419.59	32
2420.51	29
2421.43	28
2422.35	23
2423.27	29
2424.19	28
2425.11	20
2426.03	26
2426.96	26
2427.88	28
2428.8	32
2429.72	27
2430.64	32
2431.56	29
2432.48	28
2433.39	30
2434.31	22
2435.23	29
2436.15	26
2437.07	30
2437.99	23
2438.91	29
2439.83	28
2440.75	24
2441.67	26
2442.58	27
2443.5	24
2444.42	28
2445.34	26
2446.26	25
2447.17	25
2448.09	28
2449.01	25
2449.92	20
2450.84	26
2451.76	24
2452.68	28
2453.59	29
2454.51	30
2455.42	28
2456.34	24
2457.26	28
2458.17	31
2459.09	26
2460	27
2460.92	26
2461.83	28
2462.75	27
2463.66	26
2464.58	26
2465.49	31
2466.41	28
2467.32	26
2468.24	26
2469.15	30
2470.07	27
2470.98	26
2471.89	26
2472.81	28
2473.72	30
2474.64	26
2475.55	28
2476.46	29
2477.37	27
2478.29	34
2479.2	28
2480.11	23
2481.03	24
2481.94	26
2482.85	28
2483.76	27
2484.67	25
2485.59	28
2486.5	26
2487.41	28
2488.32	28
2489.23	26
2490.14	24
2491.05	32
2491.97	25
2492.88	26
2493.79	28
2494.7	29
2495.61	26
2496.52	22
2497.43	30
2498.34	28
2499.25	28
2500.16	32
2501.07	29
2501.98	31
2502.89	30
2503.79	29
2504.7	28
2505.61	26
2506.52	29
2507.43	26
2508.34	30
2509.25	26
2510.16	28
2511.06	31
2511.97	22
2512.88	28
2513.79	29
2514.69	31
2515.6	25
2516.51	25
2517.42	26
2518.32	30
2519.23	28
2520.14	24
2521.04	28
2521.95	28
2522.86	26
2523.76	27
2524.67	25
2525.57	27
2526.48	31
2527.39	30
2528.29	22
2529.2	22
2530.1	26
2531.01	30
2531.91	28
2532.82	27
2533.72	30
2534.63	31
2535.53	32
2536.44	28
2537.34	26
2538.24	25
2539.15	26
2540.05	26
2540.96	28
2541.86	31
2542.76	29
2543.67	26
2544.57	28
2545.47	26
2546.37	24
2547.28	23
2548.18	26
2549.08	27
2549.99	26
2550.89	24
2551.79	28
2552.69	26
2553.59	29
2554.49	26
2555.4	24
2556.3	25
2557.2	28
2558.1	33
2559	27
2559.9	28
2560.8	23
2561.7	27
2562.6	28
2563.5	25
2564.4	28
2565.3	22
2566.2	28
2567.1	30
2568	28
2568.9	28
2569.8	29
2570.7	24
2571.6	26
2572.5	23
2573.4	27
2574.3	26
2575.2	28
2576.1	30
2576.99	30
2577.89	26
2578.79	29
2579.69	29
2580.59	29
2581.48	26
2582.38	20
2583.28	26
2584.18	26
2585.07	24
2585.97	30
2586.87	30
2587.76	26
2588.66	30
2589.56	26
2590.45	28
2591.35	22
2592.25	25
2593.14	27
2594.04	27
2594.93	32
2595.83	25
2596.73	30
2597.62	24
2598.52	22
2599.41	28
2600.31	20
2601.2	27
2602.1	28
2602.99	24
2603.88	26
2604.78	25
2605.67	26
2606.57	30
2607.46	25
2608.35	35
2609.25	30
2610.14	30
2611.03	20
2611.93	24
2612.82	28
2613.71	22
2614.61	27
2615.5	29
2616.39	28
2617.29	23
2618.18	25
2619.07	25
2619.96	24
2620.85	29
2621.75	26
2622.64	27
2623.53	29
2624.42	24
2625.31	28
2626.2	24
2627.09	26
2627.98	26
2628.88	26
2629.77	29
2630.66	26
2631.55	24
2632.44	28
2633.33	26
2634.22	28
2635.11	31
2636	27
2636.89	25
2637.78	28
2638.66	20
2639.55	27
2640.44	30
2641.33	34
2642.22	26
2643.11	30
2644	26
2644.89	24
2645.78	30
2646.66	30
2647.55	28
2648.44	27
2649.33	31
2650.21	31
2651.1	28
2651.99	28
2652.88	33
2653.76	28
2654.65	26
2655.54	28
2656.42	30
2657.31	30
2658.2	29
2659.08	30
2659.97	22
2660.86	27
2661.74	27
2662.63	22
2663.51	28
2664.4	25
2665.29	28
2666.17	31
2667.06	30
2667.94	25
2668.83	26
2669.71	28
2670.6	33
2671.48	27
2672.36	25
2673.25	27
2674.13	26
2675.02	24
2675.9	26
2676.78	23
2677.67	28
2678.55	26
2679.43	28
2680.32	23
2681.2	25
2682.08	26
2682.97	31
2683.85	28
2684.73	28
2685.61	30
2686.5	24
2687.38	27
2688.26	22
2689.14	28
2690.03	29
2690.91	25
2691.79	26
2692.67	26
2693.55	30
2694.43	24
2695.31	26
2696.19	31
2697.08	33
2697.96	26
2698.84	28
2699.72	18
2700.6	26
2701.48	30
2702.36	27
2703.24	30
2704.12	20
2705	25
2705.88	30
2706.76	24
2707.64	28
2708.51	30
2709.39	26
2710.27	29
2711.15	27
2712.03	27
2712.91	35
2713.79	26
2714.67	30
2715.54	22
2716.42	27
2717.3	30
2718.18	24
2719.05	28
2719.93	30
2720.81	30
2721.69	26
2722.56	23
2723.44	30
2724.32	26
2725.19	28
2726.07	31
2726.95	26
2727.82	29
2728.7	30
2729.58	25
2730.45	30
2731.33	28
2732.2	26
2733.08	29
2733.95	24
2734.83	30
2735.7	27
2736.58	27
2737.45	28
2738.33	29
2739.2	28
2740.08	27
2740.95	24
2741.83	26
2742.7	28
2743.58	27
2744.45	33
2745.32	30
2746.2	30
2747.07	24
2747.94	34
2748.82	24
2749.69	26
2750.56	30
2751.44	28
2752.31	26
2753.18	22
2754.05	30
2754.93	31
2755.8	28
2756.67	30
2757.54	28
2758.42	28
2759.29	27
2760.16	28
2761.03	27
2761.9	26
2762.77	27
2763.64	27
2764.51	20
2765.38	30
2766.26	27
2767.13	30
2768	28
2768.87	30
2769.74	28
2770.61	22
2771.48	27
2772.35	28
2773.22	30
2774.09	29
2774.96	28
2775.83	26
2776.7	22
2777.56	30
2778.43	26
2779.3	22
2780.17	26
2781.04	20
2781.91	28
2782.78	33
2783.64	31
2784.51	30
2785.38	27
2786.25	26
2787.12	20
2787.98	27
2788.85	28
2789.72	33
2790.59	30
2791.45	24
2792.32	22
2793.19	30
2794.05	34
2794.92	26
2795.79	28
2796.65	26
2797.52	22
2798.38	29
2799.25	30
2800.12	29
2800.98	35
2801.85	29
2802.71	24
2803.58	28
2804.44	32
2805.31	32
2806.17	31
2807.04	28
2807.9	32
2808.77	28
2809.63	35
2810.5	25
2811.36	26
2812.22	32
2813.09	29
2813.95	26
2814.82	27
2815.68	22
2816.54	29
2817.41	28
2818.27	27
2819.13	29
2820	26
2820.86	26
2821.72	30
2822.58	28
2823.45	28
2824.31	32
2825.17	24
2826.03	30
2826.9	26
2827.76	25
2828.62	26
2829.48	27
2830.34	22
2831.2	27
2832.06	30
2832.92	31
2833.79	29
2834.65	30
2835.51	27
2836.37	27
2837.23	32
2838.09	30
2838.95	26
2839.81	32
2840.67	26
2841.53	28
2842.39	25
2843.25	34
2844.11	29
2844.97	22
2845.83	25
2846.68	30
2847.54	30
2848.4	26
2849.26	26
2850.12	28
2850.98	32
2851.84	29
2852.69	30
2853.55	31
2854.41	28
2855.27	29
2856.13	28
2856.98	25
2857.84	31
2858.7	27
2859.56	24
2860.41	29
2861.27	30
2862.13	26
2862.98	32
2863.84	28
2864.7	25
2865.55	28
2866.41	34
2867.27	26
2868.12	28
2868.98	29
2869.83	33
2870.69	30
2871.54	28
2872.4	26
2873.25	30
2874.11	31
2874.96	34
2875.82	26
2876.68	34
2877.53	33
2878.38	32
2879.24	34
2880.09	30
2880.95	37
2881.8	34
2882.65	35
2883.51	36
2884.36	35
2885.22	33
2886.07	33
2886.92	39
2887.77	39
2888.63	35
2889.48	34
2890.33	34
2891.19	42
2892.04	40
2892.89	44
2893.74	42
2894.6	46
2895.45	41
2896.3	50
2897.15	41
2898	46
2898.85	44
2899.71	48
2900.56	60
2901.41	56
2902.26	58
2903.11	63
2903.96	57
2904.81	68
2905.66	62
2906.51	61
2907.36	66
2908.21	58
2909.06	58
2909.91	59
2910.76	64
2911.61	61
2912.46	54
2913.31	46
2914.16	50
2915.01	48
2915.86	46
2916.71	45
2917.56	40
2918.41	44
2919.26	46
2920.1	40
2920.95	38
2921.8	38
2922.65	32
2923.5	35
2924.34	31
2925.19	34
2926.04	35
2926.89	33
2927.74	31
2928.58	30
2929.43	26
2930.28	31
2931.12	31
2931.97	34
2932.82	32
2933.66	26
2934.51	28
2935.36	35
2936.2	29
2937.05	27
2937.89	26
2938.74	33
2939.59	29
2940.43	34
2941.28	31
2942.12	29
2942.97	28
2943.81	37
2944.66	29
2945.5	36
2946.35	29
2947.19	28
2948.04	28
2948.88	32
2949.72	26
2950.57	30
2951.41	33
2952.26	33
2953.1	30
2953.94	34
2954.79	32
2955.63	35
2956.47	34
2957.32	34
2958.16	28
2959	36
2959.85	36
2960.69	40
2961.53	40
2962.37	39
2963.22	42
2964.06	47
2964.9	40
2965.74	42
2966.58	46
2967.42	38
2968.27	43
2969.11	41
2969.95	36
2970.79	40
2971.63	46
2972.47	40
2973.31	33
2974.15	38
2974.99	34
2975.83	36
2976.68	35
2977.52	36
2978.36	35
2979.2	26
2980.04	31
2980.88	28
2981.71	33
2982.55	32
2983.39	30
2984.23	30
2985.07	35
2985.91	28
2986.75	28
2987.59	31
2988.43	26
2989.27	32
2990.1	28
2990.94	28
2991.78	24
2992.62	28
2993.46	26
2994.3	32
2995.13	28
2995.97	26
2996.81	31
2997.64	26
2998.48	30
2999.32	24
