#Acq. time (s)=	3
#Accumulations=	3
#Range (cm-¹)=	100...3000
#Windows=	3
#Autofocus=	Off
#AutoExposure=	Off
#Spike filter=	Multiple accum.
#Delay time (s)=	0
#Binning=	1
#Readout mode=	Signal
#DeNoise=	Off
#ICS correction=	Off
#Dark correction=	Off
#Inst. Process=	Off
#Instrument=	LabRAM HR Evol
#Detector=	Syncerity OE
#Objective=	x100_VIS_LWD
#Grating=	600 (500nm)
#ND Filter=	25%
#Laser=	633nm_Edge
#Hole=	100.021
#Range=	Visible
#Project=	Bolus
#Sample=	B2
#Site=	stripside
#Title=	m13
#Remark=	
#Date=	03.11.2025 17:59
#Acquired=	03.11.2025 17:59:12
100.969	30
102.252	31
103.535	31
104.818	34
106.101	36
107.384	30
108.666	32
109.948	32
111.232	30
112.514	28
113.795	29
115.077	30
116.358	32
117.639	34
118.919	31
120.2	30
121.48	30
122.76	28
124.04	30
125.32	32
126.599	32
127.879	35
129.158	30
130.436	34
131.715	35
132.992	32
134.27	37
135.548	33
136.826	36
138.104	35
139.381	37
140.658	36
141.935	29
143.212	34
144.489	35
145.763	38
147.04	39
148.315	35
149.591	38
150.867	36
152.142	39
153.416	42
154.691	42
155.965	34
157.24	36
158.514	40
159.786	38
161.06	32
162.334	41
163.607	40
164.881	38
166.152	34
167.425	42
168.698	40
169.969	35
171.241	36
172.513	37
173.785	34
175.055	34
176.326	41
177.597	41
178.867	41
180.137	39
181.408	41
182.677	35
183.947	36
185.217	39
186.485	43
187.755	30
189.022	37
190.291	32
191.56	37
192.828	42
194.096	36
195.363	38
196.631	32
197.899	39
199.165	36
200.432	36
201.698	42
202.965	34
204.23	36
205.497	34
206.762	38
208.028	40
209.293	34
210.559	39
211.823	35
213.088	33
214.352	35
215.617	28
216.88	40
218.145	28
219.408	34
220.672	30
221.934	29
223.196	35
224.46	32
225.722	32
226.985	33
228.246	35
229.508	30
230.77	32
232.031	36
233.292	35
234.554	29
235.814	27
237.074	34
238.335	37
239.595	33
240.854	34
242.115	33
243.374	32
244.633	37
245.893	31
247.151	26
248.409	31
249.667	33
250.927	34
252.184	33
253.442	35
254.699	30
255.957	34
257.214	32
258.47	33
259.727	32
260.983	27
262.24	30
263.496	33
264.752	31
266.007	33
267.262	29
268.517	29
269.773	33
271.028	32
272.282	29
273.536	29
274.79	29
276.044	32
277.297	29
278.551	26
279.804	36
281.057	26
282.31	33
283.564	31
284.816	30
286.068	29
287.32	28
288.572	30
289.823	32
291.074	27
292.325	35
293.576	30
294.827	28
296.077	30
297.328	31
298.578	33
299.828	29
301.077	33
302.325	35
303.575	28
304.824	30
306.073	24
307.321	34
308.57	29
309.818	32
311.066	27
312.314	28
313.562	30
314.808	29
316.055	32
317.302	28
318.549	34
319.796	28
321.042	30
322.288	34
323.533	35
324.779	28
326.024	28
327.27	24
328.515	36
329.759	33
331.004	32
332.248	32
333.493	34
334.736	32
335.98	27
337.223	35
338.466	31
339.709	32
340.952	24
342.195	28
343.437	32
344.68	31
345.922	32
347.163	26
348.405	30
349.647	28
350.887	31
352.128	30
353.37	24
354.609	39
355.85	29
357.089	31
358.33	30
359.57	27
360.809	35
362.049	30
363.287	30
364.526	24
365.764	38
367.003	24
368.241	34
369.479	26
370.718	33
371.955	29
373.193	28
374.429	31
375.667	28
376.903	34
378.139	26
379.376	30
380.611	28
381.848	29
383.083	30
384.319	30
385.554	27
386.79	31
388.024	29
389.258	28
390.493	29
391.727	30
392.962	24
394.195	32
395.428	31
396.663	28
397.895	24
399.128	32
400.361	32
401.593	34
402.825	30
404.058	22
405.29	29
406.521	28
407.752	26
408.985	30
410.215	29
411.446	33
412.678	30
413.908	32
415.138	29
416.367	30
417.597	24
418.828	31
420.057	28
421.286	28
422.514	32
423.743	31
424.973	30
426.201	27
427.429	34
428.657	32
429.884	26
431.112	28
432.34	29
433.567	28
434.794	30
436.02	30
437.247	30
438.473	33
439.699	26
440.925	28
442.15	31
443.376	32
444.601	31
445.826	32
447.051	31
448.275	31
449.5	31
450.724	33
451.948	28
453.172	27
454.396	28
455.619	29
456.842	32
458.065	28
459.288	29
460.511	27
461.733	38
462.956	29
464.178	33
465.4	35
466.621	28
467.843	34
469.064	30
470.285	39
471.505	39
472.726	30
473.946	38
475.166	40
476.387	42
477.606	43
478.825	38
480.044	45
481.264	38
482.483	46
483.702	48
484.921	47
486.138	45
487.356	50
488.574	54
489.792	52
491.009	55
492.226	44
493.444	52
494.661	40
495.877	46
497.094	42
498.31	40
499.525	50
500.741	47
501.958	45
503.172	43
504.388	39
505.603	42
506.817	32
508.032	38
509.247	37
510.46	38
511.675	32
512.888	33
514.102	33
515.316	32
516.528	36
517.742	37
518.954	37
520.167	38
521.378	31
522.591	30
523.802	34
525.015	28
526.226	34
527.438	34
528.648	35
529.86	32
531.07	34
532.281	34
533.491	33
534.702	36
535.911	34
537.121	27
538.33	32
539.54	31
540.749	32
541.957	35
543.167	31
544.375	26
545.584	34
546.791	31
547.999	33
549.207	28
550.414	34
551.621	25
552.829	30
554.035	26
555.241	32
556.449	30
557.655	29
558.86	30
560.066	32
561.272	32
562.477	34
563.682	22
564.888	33
566.093	26
567.297	34
568.501	32
569.705	33
570.91	30
572.114	32
573.317	24
574.52	34
575.723	30
576.927	24
578.13	31
579.332	28
580.535	28
581.737	32
582.938	32
584.14	36
585.343	32
586.544	31
587.745	29
588.946	32
590.147	30
591.347	28
592.548	29
593.748	24
594.948	29
596.147	26
597.347	31
598.546	31
599.745	32
600.944	32
602.143	30
603.342	32
604.54	34
605.738	32
606.937	23
608.134	31
609.332	33
610.529	32
611.727	27
612.924	29
614.121	34
615.317	33
616.513	30
617.709	32
618.905	34
620.101	30
621.297	30
622.492	28
623.688	32
624.883	29
626.077	30
627.271	28
628.466	31
629.66	34
630.855	30
632.047	34
633.241	29
634.435	32
635.629	31
636.82	26
638.014	30
639.207	28
640.399	29
641.59	34
642.783	28
643.975	27
645.166	33
646.357	26
647.549	28
648.741	33
649.93	30
651.122	34
652.311	30
653.502	28
654.692	30
655.881	31
657.071	26
658.261	24
659.45	30
660.639	36
661.827	27
663.016	28
664.204	32
665.393	32
666.581	30
667.769	30
668.957	33
670.143	33
671.331	32
672.518	33
673.705	32
674.891	34
676.078	31
677.264	38
678.451	30
679.636	33
680.821	34
682.007	39
683.192	39
684.378	30
685.562	31
686.747	36
687.931	41
689.115	24
690.3	32
691.483	34
692.666	34
693.851	34
695.034	28
696.216	34
697.4	36
698.582	33
699.764	38
700.948	35
702.129	38
703.311	39
704.493	40
705.674	41
706.855	48
708.036	48
709.218	45
710.399	49
711.579	48
712.759	46
713.939	37
715.12	39
716.299	38
717.478	38
718.657	32
719.836	36
721.015	34
722.195	35
723.373	33
724.552	34
725.729	33
726.907	28
728.085	24
729.262	28
730.44	26
731.617	30
732.795	32
733.972	32
735.148	30
736.324	30
737.501	37
738.677	31
739.852	31
741.028	33
742.203	33
743.379	32
744.554	32
745.729	38
746.903	26
748.078	28
749.252	34
750.426	31
751.599	30
752.772	30
753.946	28
755.119	35
756.293	33
757.466	30
758.639	28
759.811	38
760.984	26
762.155	31
763.327	33
764.499	33
765.67	32
766.842	32
768.013	30
769.183	29
770.354	33
771.525	28
772.696	30
773.865	30
775.035	32
776.205	34
777.375	26
778.544	30
779.713	34
780.882	32
782.052	32
783.219	32
784.388	34
785.557	34
786.724	29
787.892	30
789.06	33
790.227	36
791.395	33
792.562	31
793.728	34
794.895	34
796.061	34
797.228	34
798.395	30
799.56	35
800.726	33
801.891	29
803.057	33
804.221	32
805.387	29
806.551	33
807.716	30
808.879	26
810.044	27
811.208	32
812.372	28
813.535	30
814.699	29
815.862	31
817.025	31
818.188	27
819.351	30
820.513	31
821.675	30
822.837	30
823.999	35
825.161	34
826.322	29
827.483	32
828.645	30
829.805	33
830.966	31
832.127	27
833.287	31
834.447	30
835.607	26
836.767	30
837.926	31
839.085	31
840.245	30
841.404	28
842.562	32
843.72	34
844.88	34
846.038	33
847.195	32
848.353	28
849.512	30
850.669	30
851.826	26
852.983	28
854.139	31
855.296	30
856.453	30
857.609	31
858.765	34
859.921	32
861.077	31
862.232	28
863.387	39
864.542	32
865.697	34
866.852	27
868.008	34
869.162	26
870.316	35
871.47	32
872.624	30
873.778	25
874.931	34
876.084	31
877.237	31
878.39	32
879.543	28
880.695	30
881.846	30
882.999	31
884.151	30
885.302	32
886.454	28
887.606	26
888.757	32
889.908	34
891.059	29
892.21	32
893.359	32
894.509	22
895.659	27
896.81	30
897.959	25
899.109	30
900.257	29
901.407	33
902.556	30
903.705	32
904.854	30
906.001	33
907.149	33
908.298	32
909.446	32
910.592	31
911.74	28
912.888	36
914.034	30
915.181	30
916.328	26
917.473	30
918.62	32
919.766	29
920.911	33
922.058	24
923.204	34
924.348	31
925.494	32
926.638	29
927.783	31
928.928	27
930.072	29
931.216	29
932.36	30
933.504	30
934.647	30
935.791	35
936.933	32
938.077	30
939.219	34
940.363	36
941.504	30
942.647	31
943.789	33
944.932	33
946.073	29
947.215	30
948.356	28
949.498	28
950.638	32
951.778	30
952.92	28
954.06	28
955.199	31
956.34	26
957.479	27
958.62	28
959.759	30
960.898	29
962.038	30
963.176	24
964.315	25
965.453	28
966.592	24
967.73	31
968.867	30
970.006	31
971.144	27
972.281	23
973.418	30
974.554	33
975.692	26
976.829	28
977.965	28
979.101	26
980.237	26
981.374	33
982.509	28
983.645	28
984.78	32
985.915	29
987.05	28
988.184	32
989.319	32
990.453	26
991.589	32
992.722	27
993.856	31
994.99	29
996.123	30
997.257	29
998.39	25
999.523	37
1000.66	31
1001.79	30
1002.92	28
1004.05	32
1005.18	30
1006.32	30
1007.45	28
1008.58	31
1009.71	26
1010.84	29
1011.97	28
1013.1	29
1014.23	30
1015.36	33
1016.49	28
1017.62	28
1018.75	30
1019.88	29
1021.01	25
1022.14	24
1023.27	26
1024.4	29
1025.53	24
1026.66	32
1027.79	30
1028.91	30
1030.04	29
1031.17	31
1032.3	29
1033.42	26
1034.55	22
1035.68	25
1036.81	29
1037.93	29
1039.06	30
1040.18	28
1041.31	27
1042.44	32
1043.56	26
1044.69	29
1045.81	29
1046.94	28
1048.06	28
1049.19	28
1050.31	32
1051.44	28
1052.56	31
1053.69	25
1054.81	32
1055.93	28
1057.06	28
1058.18	31
1059.3	28
1060.43	29
1061.55	28
1062.67	30
1063.79	28
1064.92	30
1066.04	26
1067.16	31
1068.28	29
1069.4	28
1070.52	26
1071.65	26
1072.77	28
1073.89	32
1075.01	32
1076.13	26
1077.25	26
1078.37	24
1079.49	26
1080.61	33
1081.73	29
1082.85	25
1083.97	22
1085.09	28
1086.2	30
1087.32	30
1088.44	26
1089.56	30
1090.68	30
1091.8	29
1092.91	27
1094.03	30
1095.15	26
1096.26	24
1097.38	31
1098.5	23
1099.61	29
1100.73	30
1101.85	30
1102.96	32
1104.08	26
1105.19	31
1106.31	33
1107.43	29
1108.54	31
1109.66	23
1110.77	32
1111.88	27
1113	29
1114.11	30
1115.23	24
1116.34	30
1117.46	25
1118.57	28
1119.68	25
1120.8	29
1121.91	27
1123.02	25
1124.13	26
1125.25	26
1126.36	33
1127.47	28
1128.58	31
1129.69	25
1130.8	28
1131.92	33
1133.03	26
1134.14	22
1135.25	31
1136.36	30
1137.47	25
1138.58	25
1139.69	28
1140.8	24
1141.91	22
1143.02	26
1144.13	25
1145.24	26
1146.35	27
1147.46	31
1148.56	29
1149.67	31
1150.78	26
1151.89	29
1153	30
1154.1	26
1155.21	26
1156.32	28
1157.43	28
1158.53	27
1159.64	25
1160.75	28
1161.85	28
1162.96	25
1164.07	30
1165.17	26
1166.28	32
1167.38	22
1168.49	34
1169.59	32
1170.7	29
1171.8	24
1172.91	36
1174.01	28
1175.12	22
1176.22	28
1177.32	28
1178.43	33
1179.53	26
1180.64	25
1181.74	32
1182.84	28
1183.94	30
1185.05	28
1186.15	24
1187.25	29
1188.35	32
1189.46	28
1190.56	28
1191.66	26
1192.76	28
1193.86	26
1194.96	29
1196.06	24
1197.16	26.9061
1198.26	29.843
1199.37	26.0686
1200.47	28.9073
1201.57	28.8382
1202.67	27.907
1203.77	31.6718
1204.86	24.2005
1205.96	26.9119
1207.06	28.7941
1208.16	25.2838
1209.26	29.5668
1210.36	28.4034
1211.46	31.0772
1212.56	30.0893
1213.65	27.1114
1214.75	25.3974
1215.85	25.5437
1216.95	27.8768
1218.04	26.719
1219.14	30.17
1220.24	27.0865
1221.33	27.2779
1222.43	24.5588
1223.53	24.4259
1224.62	29.1921
1225.72	29.5973
1226.82	32.2459
1227.91	26.1773
1229.01	30.7599
1230.1	30.162
1231.2	27.4331
1232.29	30.2228
1233.39	25.7251
1234.48	28.3311
1235.58	27.5001
1236.67	27.2092
1237.77	27.3635
1238.86	26.717
1239.95	26
1241.05	24.8137
1242.14	27.0442
1243.23	29.1084
1244.33	24.5601
1245.42	26.3778
1246.51	25.8009
1247.61	25.4657
1248.7	27.692
1249.79	28.4265
1250.88	28.8317
1251.97	27.6578
1253.07	28.7875
1254.16	25.8662
1255.25	28.6003
1256.34	28.0298
1257.43	28.4954
1258.52	28.897
1259.61	30.4067
1260.7	27.4985
1261.79	26.5531
1262.88	30.6471
1263.97	31.5227
1265.06	26.2981
1266.15	28.6613
1267.24	28.8367
1268.33	25.1385
1269.42	28.8394
1270.51	28.9959
1271.6	30.8347
1272.68	28.2985
1273.77	27.1961
1274.86	25.1068
1275.95	25.3971
1277.04	25.6978
1278.12	28.0471
1279.21	28.75
1280.3	28.5037
1281.39	22.9426
1282.47	28.4129
1283.56	28
1284.65	26.3922
1285.73	27.7734
1286.82	25.1369
1287.91	25.4614
1288.99	23.6382
1290.08	29.53
1291.16	21.6108
1292.25	26.2734
1293.33	25.6077
1294.42	26.8979
1295.5	28.3488
1296.59	26.7813
1297.67	28
1298.76	27.7169
1299.84	26.1275
1300.92	26.1509
1302.01	26.8572
1303.09	25.0545
1304.17	25.9257
1305.26	24.4214
1306.34	29.2076
1307.34	32
1308.43	28
1309.52	26
1310.61	28
1311.7	22
1312.78	24
1313.87	29
1314.96	22
1316.04	27
1317.13	31
1318.22	26
1319.3	29
1320.39	21
1321.48	25
1322.56	23
1323.65	23
1324.73	26
1325.82	28
1326.9	27
1327.99	31
1329.07	27
1330.16	28
1331.24	28
1332.33	32
1333.41	29
1334.5	27
1335.58	26
1336.66	34
1337.75	30
1338.83	26
1339.91	28
1341	29
1342.08	29
1343.16	25
1344.24	28
1345.33	24
1346.41	22
1347.49	25
1348.57	30
1349.65	28
1350.74	26
1351.82	29
1352.9	28
1353.98	28
1355.06	22
1356.14	26
1357.22	26
1358.3	32
1359.38	24
1360.46	26
1361.54	30
1362.62	30
1363.7	30
1364.78	26
1365.86	24
1366.94	29
1368.02	24
1369.09	24
1370.17	26
1371.25	30
1372.33	24
1373.41	26
1374.48	28
1375.56	26
1376.64	28
1377.72	30
1378.79	26
1379.87	24
1380.95	22
1382.02	28
1383.1	27
1384.17	30
1385.25	29
1386.33	30
1387.4	27
1388.48	29
1389.55	29
1390.63	26
1391.7	32
1392.78	31
1393.85	28
1394.93	26
1396	31
1397.07	26
1398.15	28
1399.22	32
1400.3	27
1401.37	31
1402.44	34
1403.52	34
1404.59	32
1405.66	33
1406.73	32
1407.81	29
1408.88	22
1409.95	31
1411.02	20
1412.09	31
1413.17	24
1414.24	30
1415.31	30
1416.38	37
1417.45	31
1418.52	31
1419.59	32
1420.66	30
1421.73	30
1422.8	30
1423.87	30
1424.94	28
1426.01	33
1427.08	31
1428.15	32
1429.22	34
1430.29	30
1431.35	31
1432.42	28
1433.49	22
1434.56	30
1435.63	24
1436.69	35
1437.76	28
1438.83	26
1439.9	23
1440.96	24
1442.03	22
1443.1	30
1444.17	28
1445.23	26
1446.3	31
1447.36	27
1448.43	36
1449.49	27
1450.56	30
1451.63	26
1452.69	18
1453.76	24
1454.82	27
1455.89	27
1456.95	30
1458.01	26
1459.08	28
1460.14	25
1461.21	27
1462.27	27
1463.34	31
1464.4	28
1465.46	31
1466.52	29
1467.59	31
1468.65	22
1469.71	28
1470.77	27
1471.84	26
1472.9	25
1473.96	28
1475.02	32
1476.08	29
1477.15	32
1478.21	28
1479.27	28
1480.33	28
1481.39	24
1482.45	28
1483.51	24
1484.57	30
1485.63	26
1486.69	28
1487.75	33
1488.81	32
1489.87	26
1490.93	26
1491.99	22
1493.05	26
1494.1	30
1495.16	27
1496.22	32
1497.28	29
1498.34	30
1499.4	33
1500.45	28
1501.51	31
1502.57	27
1503.63	28
1504.68	26
1505.74	26
1506.8	31
1507.85	27
1508.91	30
1509.97	32
1511.02	22
1512.08	32
1513.13	25
1514.19	30
1515.24	28
1516.3	29
1517.35	26
1518.41	30
1519.46	29
1520.52	30
1521.57	24
1522.63	30
1523.68	26
1524.73	25
1525.79	28
1526.84	27
1527.9	22
1528.95	30
1530	28
1531.05	30
1532.11	28
1533.16	34
1534.21	31
1535.26	20
1536.32	32
1537.37	29
1538.42	29
1539.47	26
1540.52	29
1541.57	29
1542.63	26
1543.68	31
1544.73	25
1545.78	31
1546.83	27
1547.88	30
1548.93	29
1549.98	31
1551.03	26
1552.08	32
1553.13	28
1554.18	29
1555.23	30
1556.27	18
1557.32	27
1558.37	32
1559.42	31
1560.47	32
1561.52	26
1562.56	30
1563.61	30
1564.66	25
1565.71	25
1566.75	29
1567.8	28
1568.85	24
1569.9	28
1570.94	25
1571.99	25
1573.03	30
1574.08	28
1575.13	31
1576.17	28
1577.22	23
1578.26	30
1579.31	32
1580.35	29
1581.4	33
1582.44	26
1583.49	30
1584.53	29
1585.58	30
1586.62	31
1587.66	28
1588.71	28
1589.75	28
1590.8	28
1591.84	26
1592.88	28
1593.92	24
1594.97	29
1596.01	26
1597.05	32
1598.1	28
1599.14	26
1600.18	25
1601.22	30
1602.26	26
1603.3	28
1604.35	29
1605.39	28
1606.43	29
1607.47	30
1608.51	29
1609.55	28
1610.59	29
1611.63	32
1612.67	29
1613.71	18
1614.75	26
1615.79	27
1616.83	32
1617.87	24
1618.91	25
1619.95	32
1620.99	26
1622.02	24
1623.06	28
1624.1	23
1625.14	29
1626.18	26
1627.21	28
1628.25	28
1629.29	33
1630.33	27
1631.36	26
1632.4	29
1633.44	28
1634.48	30
1635.51	30
1636.55	29
1637.58	29
1638.62	26
1639.66	35
1640.69	30
1641.73	28
1642.76	27
1643.8	25
1644.83	28
1645.87	27
1646.9	26
1647.94	27
1648.97	26
1650	20
1651.04	28
1652.07	27
1653.11	26
1654.14	31
1655.17	30
1656.21	28
1657.24	27
1658.27	29
1659.31	29
1660.34	27
1661.37	26
1662.4	22
1663.43	28
1664.47	26
1665.5	27
1666.53	29
1667.56	18
1668.59	34
1669.62	30
1670.66	30
1671.69	26
1672.72	28
1673.75	28
1674.78	25
1675.81	31
1676.84	26
1677.87	28
1678.9	28
1679.93	26
1680.96	29
1681.98	28
1683.01	31
1684.04	25
1685.07	26
1686.1	29
1687.13	22
1688.16	26
1689.18	30
1690.21	27
1691.24	29
1692.27	26
1693.3	26
1694.32	28
1695.35	28
1696.38	29
1697.4	33
1698.43	30
1699.46	28
1700.48	30
1701.51	24
1702.54	24
1703.56	28
1704.59	22
1705.61	25
1706.64	27
1707.66	27
1708.69	22
1709.71	34
1710.74	21
1711.76	25
1712.79	28
1713.81	28
1714.83	29
1715.86	34
1716.88	29
1717.91	28
1718.93	22
1719.95	26
1720.98	29
1722	24
1723.02	30
1724.04	27
1725.07	26
1726.09	31
1727.11	26
1728.13	30
1729.15	29
1730.18	31
1731.2	28
1732.22	28
1733.24	26
1734.26	33
1735.28	28
1736.3	32
1737.32	26
1738.34	28
1739.36	29
1740.38	25
1741.4	30
1742.42	28
1743.44	26
1744.46	28
1745.48	32
1746.5	28
1747.52	27
1748.54	27
1749.56	24
1750.58	26
1751.6	24
1752.61	27
1753.63	24
1754.65	26
1755.67	30
1756.68	31
1757.7	28
1758.72	26
1759.74	29
1760.75	24
1761.77	29
1762.79	25
1763.8	28
1764.82	24
1765.83	28
1766.85	28
1767.87	24
1768.88	22
1769.9	27
1770.91	27
1771.93	29
1772.94	28
1773.96	27
1774.97	34
1775.99	31
1777	32
1778.02	31
1779.03	28
1780.04	28
1781.06	26
1782.07	27
1783.09	29
1784.1	28
1785.11	24
1786.13	20
1787.14	28
1788.15	29
1789.16	30
1790.18	28
1791.19	22
1792.2	26
1793.21	29
1794.22	34
1795.23	24
1796.25	24
1797.26	26
1798.27	26
1799.28	29
1800.29	30
1801.3	25
1802.31	24
1803.32	27
1804.33	28
1805.34	30
1806.35	25
1807.36	24
1808.37	28
1809.38	26
1810.39	34
1811.4	29
1812.41	20
1813.42	28
1814.42	26
1815.43	32
1816.44	29
1817.45	29
1818.46	28
1819.47	32
1820.47	28
1821.48	28
1822.49	28
1823.49	35
1824.5	24
1825.51	30
1826.52	22
1827.52	30
1828.53	29
1829.53	28
1830.54	24
1831.55	28
1832.55	26
1833.56	30
1834.56	31
1835.57	26
1836.57	24
1837.58	28
1838.58	24
1839.59	27
1840.59	31
1841.6	30
1842.6	22
1843.61	27
1844.61	22
1845.61	28
1846.62	27
1847.62	26
1848.62	30
1849.63	28
1850.63	31
1851.63	28
1852.64	14
1853.64	28
1854.64	30
1855.64	27
1856.64	31
1857.65	30
1858.65	27
1859.65	30
1860.65	32
1861.65	28
1862.65	30
1863.65	25
1864.66	26
1865.66	26
1866.66	33
1867.66	28
1868.66	29
1869.66	22
1870.66	24
1871.66	30
1872.66	28
1873.66	26
1874.66	24
1875.65	28
1876.65	29
1877.65	26
1878.65	23
1879.65	30
1880.65	30
1881.65	26
1882.64	28
1883.64	24
1884.64	32
1885.64	28
1886.63	33
1887.63	29
1888.63	29
1889.63	26
1890.62	30
1891.62	30
1892.62	26
1893.61	20
1894.61	24
1895.6	26
1896.6	30
1897.6	28
1898.59	29
1899.59	28
1900.58	29
1901.58	24
1902.57	29
1903.57	31
1904.56	26
1905.56	24
1906.55	25
1907.54	22
1908.54	28
1909.53	28
1910.53	28
1911.52	29
1912.51	26
1913.51	31
1914.5	29
1915.49	31
1916.49	25
1917.48	28
1918.47	22
1919.46	26
1920.46	28
1921.45	27
1922.44	29
1923.43	28
1924.42	30
1925.41	30
1926.41	25
1927.4	22
1928.39	29
1929.38	28
1930.37	29
1931.36	26
1932.35	28
1933.34	24
1934.33	25
1935.32	27
1936.31	26
1937.3	30
1938.29	26
1939.28	28
1940.27	29
1941.26	24
1942.24	26
1943.23	26
1944.22	25
1945.21	23
1946.2	28
1947.19	31
1948.17	32
1949.16	27
1950.15	27
1951.14	27
1952.12	26
1953.11	27
1954.1	28
1955.09	28
1956.07	26
1957.06	24
1958.05	30
1959.03	26
1960.02	28
1961	26
1961.99	26
1962.98	27
1963.96	26
1964.95	30
1965.93	30
1966.92	31
1967.9	30
1968.89	30
1969.87	26
1970.85	25
1971.84	30
1972.82	24
1973.81	29
1974.79	22
1975.78	28
1976.76	26
1977.74	26
1978.73	29
1979.71	24
1980.69	24
1981.67	28
1982.66	30
1983.64	28
1984.62	30
1985.6	25
1986.59	30
1987.57	28
1988.55	29
1989.53	26
1990.51	26
1991.49	27
1992.47	27
1993.45	24
1994.44	23
1995.42	24
1996.4	22
1997.38	26
1998.36	29
1999.34	28
2000.32	26
2001.3	24
2002.28	25
2003.26	28
2004.24	28
2005.22	29
2006.19	29
2007.17	29
2008.15	30
2009.13	24
2010.11	29
2011.09	31
2012.06	28
2013.04	28
2014.02	26
2015	31
2015.98	26
2016.95	26
2017.93	22
2018.91	25
2019.88	27
2020.86	30
2021.84	27
2022.81	22
2023.79	28
2024.77	33
2025.74	26
2026.72	26
2027.69	28
2028.67	28
2029.65	25
2030.62	26
2031.6	28
2032.57	27
2033.55	26
2034.52	24
2035.5	20
2036.47	29
2037.44	29
2038.42	31
2039.39	21
2040.36	30
2041.34	26
2042.31	24
2043.29	24
2044.26	24
2045.23	26
2046.2	26
2047.18	28
2048.15	25
2049.12	26
2050.09	21
2051.07	26
2052.04	32
2053.01	28
2053.98	28
2054.95	27
2055.93	26
2056.9	26
2057.87	28
2058.84	22
2059.81	28
2060.78	23
2061.75	28
2062.72	24
2063.69	30
2064.66	24
2065.63	29
2066.6	26
2067.57	27
2068.54	23
2069.51	30
2070.48	24
2071.45	24
2072.42	26
2073.38	27
2074.35	24
2075.32	30
2076.29	29
2077.26	30
2078.23	22
2079.19	28
2080.16	25
2081.13	28
2082.1	27
2083.06	24
2084.03	26
2085	26
2085.96	29
2086.93	29
2087.9	27
2088.86	26
2089.83	24
2090.8	25
2091.76	28
2092.73	29
2093.69	26
2094.66	26
2095.62	26
2096.59	25
2097.55	26
2098.52	24
2099.48	30
2100.45	28
2101.41	28
2102.38	26
2103.34	26
2104.31	28
2105.27	20
2106.23	24
2107.2	25
2108.16	25
2109.12	24
2110.09	31
2111.05	27
2112.01	28
2112.98	28
2113.94	25
2114.9	26
2115.86	24
2116.82	25
2117.79	22
2118.75	22
2119.71	26
2120.67	23
2121.63	25
2122.59	31
2123.55	26
2124.52	26
2125.48	26
2126.44	24
2127.4	23
2128.36	26
2129.32	26
2130.28	27
2131.24	26
2132.2	25
2133.16	20
2134.12	32
2135.08	24
2136.04	24
2136.99	29
2137.95	18
2138.91	29
2139.87	24
2140.83	25
2141.79	30
2142.75	30
2143.7	26
2144.66	28
2145.62	23.9893
2146.58	27.8877
2147.53	25.9614
2148.49	26.0777
2149.45	23.8439
2150.41	26.0153
2151.36	26.2296
2152.32	27.7148
2153.27	26
2154.23	26.0097
2155.19	23.4957
2156.14	29.3282
2157.1	25.8909
2158.06	27.9756
2159.01	25.4536
2159.97	25.443
2160.92	25.679
2161.88	29.9761
2162.83	25.5409
2163.79	24.1912
2164.74	24.5999
2165.7	25.8312
2166.65	25.919
2167.61	24.2576
2168.56	24.5162
2169.51	25.25
2170.47	26.4893
2171.42	25
2172.38	27.4286
2173.33	25.1281
2174.28	24.2006
2175.24	25.0549
2176.19	26.2357
2177.14	25.4725
2178.09	28.5462
2179.05	25.6574
2180	22.565
2180.95	26.7018
2181.9	26.3536
2182.86	24.6517
2183.81	26.4118
2184.76	22.6827
2185.71	26.82
2186.66	25.875
2187.61	25.0367
2188.57	28.7696
2189.52	26.3938
2190.47	26.3357
2191.42	25.8604
2192.37	24.147
2193.32	22.9031
2194.27	24.9279
2195.22	24.2847
2196.17	26.0745
2197.12	24.2845
2198.07	24
2199.02	24.4461
2199.97	24.4363
2200.92	27.1201
2201.87	21.0416
2202.82	24.7548
2203.76	26.1284
2204.71	24.2683
2205.66	26.8998
2206.61	25.7222
2207.56	24.3745
2208.51	27.521
2209.45	24.4399
2210.4	26.8478
2211.35	26.3467
2212.3	23.0254
2213.24	23.3293
2214.19	25.8462
2215.14	25.7137
2216.09	24.5392
2217.03	27.6847
2217.98	26.1524
2218.93	24.4496
2219.87	26.9992
2220.82	28.3785
2221.77	24.1908
2222.71	24.9288
2223.66	25.7811
2224.6	25.3699
2225.55	24.5127
2226.49	25.8678
2227.44	27.152
2228.38	22.6579
2229.33	23.169
2230.27	24.8819
2231.22	26.5649
2232.16	22.5244
2233.11	22.5434
2234.05	23.9862
2235	24.7172
2235.94	24.4913
2236.88	25.2004
2237.83	27.0588
2238.77	26.7826
2239.71	27.1988
2240.66	26.7891
2241.6	23.684
2242	22
2242.95	26
2243.9	23
2244.84	23
2245.79	18
2246.74	24
2247.69	24
2248.63	30
2249.58	24
2250.53	26
2251.47	27
2252.42	26
2253.37	24
2254.31	26
2255.26	25
2256.2	28
2257.15	22
2258.1	24
2259.04	27
2259.99	28
2260.93	28
2261.88	22
2262.82	30
2263.77	26
2264.71	25
2265.65	30
2266.6	28
2267.54	30
2268.49	29
2269.43	20
2270.38	28
2271.32	22
2272.26	27
2273.21	27
2274.15	28
2275.09	24
2276.04	22
2276.98	29
2277.92	25
2278.86	24
2279.81	25
2280.75	24
2281.69	24
2282.63	25
2283.57	24
2284.52	28
2285.46	29
2286.4	22
2287.34	24
2288.28	26
2289.22	22
2290.16	27
2291.1	20
2292.04	24
2292.98	24
2293.93	25
2294.86	26
2295.8	25
2296.74	24
2297.69	23
2298.62	22
2299.56	22
2300.5	24
2301.44	24
2302.38	24
2303.32	25
2304.26	26
2305.2	26
2306.14	29
2307.07	24
2308.01	22
2308.95	28
2309.89	28
2310.83	24
2311.76	30
2312.7	18
2313.64	24
2314.58	25
2315.51	27
2316.45	28
2317.39	26
2318.32	24
2319.26	27
2320.2	32
2321.13	29
2322.07	27
2323	24
2323.94	28
2324.88	24
2325.81	27
2326.75	28
2327.68	28
2328.62	24
2329.55	26
2330.49	29
2331.42	28
2332.36	25
2333.29	30
2334.22	29
2335.16	21
2336.09	26
2337.03	30
2337.96	26
2338.89	29
2339.83	28
2340.76	30
2341.69	30
2342.63	22
2343.56	28
2344.49	22
2345.43	22
2346.36	28
2347.29	28
2348.22	30
2349.15	28
2350.09	28
2351.02	22
2351.95	27
2352.88	26
2353.81	22
2354.74	24
2355.67	28
2356.61	28
2357.54	28
2358.47	29
2359.4	27
2360.33	30
2361.26	20
2362.19	28
2363.12	28
2364.05	28
2364.98	23
2365.91	25
2366.84	28
2367.77	26
2368.7	25
2369.62	28
2370.55	25
2371.48	23
2372.41	29
2373.34	27
2374.27	27
2375.2	25
2376.12	26
2377.05	26
2377.98	26
2378.91	22
2379.83	26
2380.76	26
2381.69	26
2382.62	31
2383.54	26
2384.47	27
2385.4	30
2386.32	25
2387.25	27
2388.18	20
2389.1	27
2390.03	27
2390.95	26
2391.88	26
2392.81	26
2393.73	28
2394.66	30
2395.58	28
2396.51	25
2397.43	25
2398.36	22
2399.28	32
2400.2	27
2401.13	28
2402.05	24
2402.98	26
2403.9	29
2404.83	28
2405.75	28
2406.67	30
2407.6	28
2408.52	30
2409.44	26
2410.37	26
2411.29	28
2412.21	28
2413.13	26
2414.06	26
2414.98	22
2415.9	26
2416.82	24
2417.74	26
2418.67	28
2419.59	28
2420.51	22
2421.43	30
2422.35	28
2423.27	29
2424.19	29
2425.11	30
2426.03	27
2426.96	29
2427.88	18
2428.8	28
2429.72	28
2430.64	25
2431.56	28
2432.48	29
2433.39	21
2434.31	26
2435.23	26
2436.15	26
2437.07	28
2437.99	24
2438.91	30
2439.83	24
2440.75	25
2441.67	22
2442.58	24
2443.5	30
2444.42	32
2445.34	28
2446.26	24
2447.17	26
2448.09	28
2449.01	25
2449.92	24
2450.84	30
2451.76	23
2452.68	22
2453.59	24
2454.51	29
2455.42	28
2456.34	18
2457.26	30
2458.17	24
2459.09	29
2460	24
2460.92	28
2461.83	29
2462.75	27
2463.66	27
2464.58	25
2465.49	29
2466.41	28
2467.32	29
2468.24	26
2469.15	29
2470.07	22
2470.98	33
2471.89	26
2472.81	27
2473.72	25
2474.64	24
2475.55	20
2476.46	29
2477.37	29
2478.29	29
2479.2	28
2480.11	24
2481.03	27
2481.94	26
2482.85	30
2483.76	25
2484.67	27
2485.59	30
2486.5	33
2487.41	29
2488.32	24
2489.23	23
2490.14	30
2491.05	25
2491.97	27
2492.88	30
2493.79	24
2494.7	34
2495.61	27
2496.52	31
2497.43	26
2498.34	28
2499.25	24
2500.16	24
2501.07	26
2501.98	30
2502.89	25
2503.79	30
2504.7	29
2505.61	25
2506.52	27
2507.43	24
2508.34	29
2509.25	28
2510.16	27
2511.06	28
2511.97	23
2512.88	28
2513.79	27
2514.69	31
2515.6	28
2516.51	26
2517.42	23
2518.32	24
2519.23	28
2520.14	26
2521.04	24
2521.95	25
2522.86	25
2523.76	26
2524.67	27
2525.57	27
2526.48	22
2527.39	26
2528.29	28
2529.2	24
2530.1	31
2531.01	28
2531.91	27
2532.82	29
2533.72	28
2534.63	27
2535.53	24
2536.44	25
2537.34	24
2538.24	25
2539.15	25
2540.05	28
2540.96	30
2541.86	23
2542.76	25
2543.67	28
2544.57	25
2545.47	26
2546.37	28
2547.28	26
2548.18	28
2549.08	28
2549.99	22
2550.89	32
2551.79	27
2552.69	24
2553.59	25
2554.49	29
2555.4	18
2556.3	25
2557.2	22
2558.1	25
2559	27
2559.9	30
2560.8	31
2561.7	28
2562.6	26
2563.5	29
2564.4	26
2565.3	30
2566.2	28
2567.1	29
2568	31
2568.9	27
2569.8	26
2570.7	29
2571.6	32
2572.5	26
2573.4	26
2574.3	26
2575.2	28
2576.1	28
2576.99	28
2577.89	30
2578.79	28
2579.69	28
2580.59	28
2581.48	26
2582.38	28
2583.28	27
2584.18	28
2585.07	24
2585.97	26
2586.87	26
2587.76	29
2588.66	25
2589.56	24
2590.45	28
2591.35	28
2592.25	26
2593.14	28
2594.04	29
2594.93	28
2595.83	30
2596.73	27
2597.62	26
2598.52	31
2599.41	28
2600.31	28
2601.2	22
2602.1	31
2602.99	27
2603.88	23
2604.78	31
2605.67	28
2606.57	25
2607.46	28
2608.35	28
2609.25	27
2610.14	28
2611.03	26
2611.93	28
2612.82	31
2613.71	26
2614.61	28
2615.5	25
2616.39	25
2617.29	28
2618.18	24
2619.07	28
2619.96	27
2620.85	29
2621.75	31
2622.64	28
2623.53	32
2624.42	31
2625.31	26
2626.2	26
2627.09	28
2627.98	26
2628.88	32
2629.77	23
2630.66	25
2631.55	29
2632.44	27
2633.33	26
2634.22	30
2635.11	24
2636	31
2636.89	31
2637.78	30
2638.66	27
2639.55	24
2640.44	27
2641.33	26
2642.22	32
2643.11	30
2644	20
2644.89	22
2645.78	26
2646.66	26
2647.55	28
2648.44	31
2649.33	27
2650.21	27
2651.1	31
2651.99	26
2652.88	23
2653.76	26
2654.65	27
2655.54	28
2656.42	28
2657.31	28
2658.2	26
2659.08	24
2659.97	34
2660.86	27
2661.74	28
2662.63	26
2663.51	24
2664.4	24
2665.29	27
2666.17	23
2667.06	26
2667.94	31
2668.83	29
2669.71	30
2670.6	24
2671.48	28
2672.36	23
2673.25	22
2674.13	22
2675.02	30
2675.9	25
2676.78	25
2677.67	27
2678.55	29
2679.43	28
2680.32	21
2681.2	24
2682.08	26
2682.97	28
2683.85	30
2684.73	24
2685.61	24
2686.5	34
2687.38	25
2688.26	24
2689.14	24
2690.03	29
2690.91	27
2691.79	25
2692.67	32
2693.55	28
2694.43	24
2695.31	20
2696.19	26
2697.08	26
2697.96	22
2698.84	25
2699.72	28
2700.6	28
2701.48	27
2702.36	26
2703.24	26
2704.12	24
2705	33
2705.88	28
2706.76	26
2707.64	25
2708.51	26
2709.39	28
2710.27	26
2711.15	32
2712.03	26
2712.91	27
2713.79	25
2714.67	26
2715.54	26
2716.42	26
2717.3	26
2718.18	25
2719.05	28
2719.93	31
2720.81	25
2721.69	29
2722.56	29
2723.44	24
2724.32	27
2725.19	29
2726.07	29
2726.95	22
2727.82	26
2728.7	27
2729.58	31
2730.45	24
2731.33	23
2732.2	24
2733.08	27
2733.95	28
2734.83	22
2735.7	26
2736.58	28
2737.45	28
2738.33	29
2739.2	18
2740.08	26
2740.95	26
2741.83	28
2742.7	27
2743.58	29
2744.45	31
2745.32	27
2746.2	34
2747.07	28
2747.94	26
2748.82	30
2749.69	26
2750.56	27
2751.44	30
2752.31	26
2753.18	27
2754.05	26
2754.93	28
2755.8	24
2756.67	29
2757.54	28
2758.42	25
2759.29	26
2760.16	28
2761.03	26
2761.9	29
2762.77	26
2763.64	29
2764.51	30
2765.38	24
2766.26	26
2767.13	25
2768	26
2768.87	26
2769.74	29
2770.61	27
2771.48	28
2772.35	24
2773.22	22
2774.09	27
2774.96	29
2775.83	26
2776.7	24
2777.56	24
2778.43	27
2779.3	27
2780.17	29
2781.04	22
2781.91	28
2782.78	27
2783.64	27
2784.51	27
2785.38	28
2786.25	20
2787.12	28
2787.98	28
2788.85	28
2789.72	29
2790.59	27
2791.45	28
2792.32	27
2793.19	26
2794.05	31
2794.92	24
2795.79	20
2796.65	27
2797.52	28
2798.38	28
2799.25	28
2800.12	29
2800.98	28
2801.85	27
2802.71	28
2803.58	30.5
2804.44	31
2805.31	32
2806.17	30
2807.04	20
2807.9	26
2808.77	26
2809.63	26
2810.5	26
2811.36	26
2812.22	28
2813.09	30
2813.95	28
2814.82	30
2815.68	31
2816.54	28
2817.41	28
2818.27	27
2819.13	24
2820	28
2820.86	28
2821.72	31
2822.58	26
2823.45	26
2824.31	24
2825.17	31
2826.03	24
2826.9	26
2827.76	32
2828.62	24
2829.48	31
2830.34	30
2831.2	29
2832.06	28
2832.92	24
2833.79	26
2834.65	27
2835.51	33
2836.37	20
2837.23	32
2838.09	28
2838.95	27
2839.81	29
2840.67	26
2841.53	24
2842.39	24
2843.25	28
2844.11	29
2844.97	28
2845.83	30
2846.68	28
2847.54	31
2848.4	24
2849.26	28
2850.12	22
2850.98	24
2851.84	29
2852.69	33
2853.55	28
2854.41	28
2855.27	32
2856.13	26
2856.98	24
2857.84	25
2858.7	32
2859.56	32
2860.41	26
2861.27	29
2862.13	31
2862.98	27
2863.84	33
2864.7	28
2865.55	29
2866.41	27
2867.27	29
2868.12	26
2868.98	30
2869.83	28
2870.69	28
2871.54	30
2872.4	30
2873.25	26
2874.11	28
2874.96	28
2875.82	32
2876.68	31
2877.53	31
2878.38	30
2879.24	33
2880.09	32
2880.95	34
2881.8	32
2882.65	32
2883.51	30
2884.36	34
2885.22	29
2886.07	37
2886.92	34
2887.77	33
2888.63	38
2889.48	44
2890.33	39
2891.19	36
2892.04	42
2892.89	40
2893.74	40
2894.6	46
2895.45	39
2896.3	44
2897.15	42
2898	44
2898.85	46
2899.71	52
2900.56	54
2901.41	49
2902.26	52
2903.11	50
2903.96	58
2904.81	56
2905.66	58
2906.51	62
2907.36	56
2908.21	56
2909.06	60
2909.91	50
2910.76	56
2911.61	44
2912.46	48
2913.31	58
2914.16	40
2915.01	48
2915.86	38
2916.71	43
2917.56	44
2918.41	38
2919.26	38
2920.1	34
2920.95	36
2921.8	32
2922.65	34
2923.5	38
2924.34	36
2925.19	33
2926.04	30
2926.89	30
2927.74	32
2928.58	35
2929.43	32
2930.28	29
2931.12	27
2931.97	29
2932.82	30
2933.66	27
2934.51	33
2935.36	29
2936.2	31
2937.05	26
2937.89	31
2938.74	26
2939.59	28
2940.43	30
2941.28	31
2942.12	34
2942.97	30
2943.81	32
2944.66	29
2945.5	36
2946.35	30
2947.19	30
2948.04	29
2948.88	28
2949.72	32
2950.57	26
2951.41	29
2952.26	33
2953.1	30
2953.94	30
2954.79	34
2955.63	30
2956.47	29
2957.32	34
2958.16	32
2959	35
2959.85	35
2960.69	39
2961.53	42
2962.37	35
2963.22	38
2964.06	38
2964.9	34
2965.74	44
2966.58	40
2967.42	38
2968.27	44
2969.11	42
2969.95	36
2970.79	39
2971.63	42
2972.47	36
2973.31	38
2974.15	33
2974.99	32
2975.83	39
2976.68	32
2977.52	32
2978.36	30
2979.2	36
2980.04	30
2980.88	36
2981.71	34
2982.55	30
2983.39	33
2984.23	34
2985.07	29
2985.91	28
2986.75	28
2987.59	28
2988.43	29
2989.27	30
2990.1	28
2990.94	30
2991.78	22
2992.62	28
2993.46	28
2994.3	27
2995.13	22
2995.97	26
2996.81	25
2997.64	25
2998.48	29
2999.32	20
