#Acq. time (s)=	3
#Accumulations=	3
#Range (cm-¹)=	100...3000
#Windows=	3
#Autofocus=	Off
#AutoExposure=	Off
#Spike filter=	Multiple accum.
#Delay time (s)=	0
#Binning=	1
#Readout mode=	Signal
#DeNoise=	Off
#ICS correction=	Off
#Dark correction=	Off
#Inst. Process=	Off
#Instrument=	LabRAM HR Evol
#Detector=	Syncerity OE
#Objective=	x100_VIS_LWD
#Grating=	600 (500nm)
#ND Filter=	25%
#Laser=	633nm_Edge
#Hole=	100.021
#Range=	Visible
#Project=	Bolus
#Sample=	B2
#Site=	stripside
#Title=	m16
#Remark=	
#Date=	03.11.2025 18:04
#Acquired=	03.11.2025 18:04:03
100.969	28
102.252	32
103.535	37
104.818	28
106.101	31
107.384	30
108.666	38
109.948	26
111.232	30
112.514	28
113.795	34
115.077	37
116.358	26
117.639	34
118.919	36
120.2	32
121.48	28
122.76	28
124.04	29
125.32	35
126.599	34
127.879	34
129.158	30
130.436	36
131.715	30
132.992	34
134.27	34
135.548	34
136.826	36
138.104	36
139.381	35
140.658	30
141.935	32
143.212	36
144.489	37
145.763	31
147.04	37
148.315	39
149.591	39
150.867	34
152.142	34
153.416	34
154.691	38
155.965	37
157.24	36
158.514	34
159.786	42
161.06	46
162.334	32
163.607	43
164.881	36
166.152	40
167.425	35
168.698	43
169.969	37
171.241	40
172.513	41
173.785	36
175.055	35
176.326	32
177.597	30
178.867	29
180.137	44
181.408	32
182.677	39
183.947	43
185.217	38
186.485	37
187.755	36
189.022	38
190.291	43
191.56	36
192.828	43
194.096	38
195.363	41
196.631	35
197.899	32
199.165	36
200.432	39
201.698	36
202.965	35
204.23	35
205.497	38
206.762	35
208.028	36
209.293	37
210.559	34
211.823	34
213.088	34
214.352	29
215.617	40
216.88	31
218.145	36
219.408	36
220.672	33
221.934	32
223.196	30
224.46	31
225.722	30
226.985	34
228.246	33
229.508	36
230.77	36
232.031	29
233.292	34
234.554	34
235.814	30
237.074	36
238.335	35
239.595	35
240.854	32
242.115	30
243.374	34
244.633	31
245.893	31
247.151	28
248.409	32
249.667	30
250.927	31
252.184	28
253.442	35
254.699	30
255.957	28
257.214	28
258.47	26
259.727	28
260.983	35
262.24	29
263.496	30
264.752	28
266.007	26
267.262	26
268.517	26
269.773	29
271.028	32
272.282	28
273.536	33
274.79	25
276.044	26
277.297	27
278.551	27
279.804	34
281.057	29
282.31	27
283.564	28
284.816	32
286.068	27
287.32	28
288.572	32
289.823	23
291.074	33
292.325	30
293.576	29
294.827	32
296.077	28
297.328	34
298.578	29
299.828	34
301.077	28
302.325	32
303.575	28
304.824	32
306.073	32
307.321	28
308.57	30
309.818	30
311.066	28
312.314	30
313.562	31
314.808	32
316.055	34
317.302	33
318.549	30
319.796	29
321.042	30
322.288	31
323.533	32
324.779	31
326.024	28
327.27	32
328.515	32
329.759	28
331.004	32
332.248	32
333.493	29
334.736	34
335.98	30
337.223	29
338.466	28
339.709	32
340.952	27
342.195	30
343.437	30
344.68	26
345.922	30
347.163	28
348.405	27
349.647	32
350.887	33
352.128	28
353.37	24
354.609	31
355.85	36
357.089	24
358.33	33
359.57	30
360.809	28
362.049	33
363.287	31
364.526	28
365.764	34
367.003	29
368.241	29
369.479	28
370.718	32
371.955	31
373.193	30
374.429	29
375.667	27
376.903	32
378.139	35
379.376	34
380.611	28
381.848	33
383.083	24
384.319	28
385.554	38
386.79	32
388.024	28
389.258	36
390.493	29
391.727	32
392.962	28
394.195	28
395.428	33
396.663	26
397.895	24
399.128	31
400.361	33
401.593	24
402.825	31
404.058	36
405.29	26
406.521	30
407.752	31
408.985	32
410.215	34
411.446	30
412.678	32
413.908	26
415.138	27
416.367	31
417.597	32
418.828	30
420.057	24
421.286	34
422.514	28
423.743	31
424.973	28
426.201	29
427.429	32
428.657	32
429.884	30
431.112	30
432.34	26
433.567	32
434.794	26
436.02	29
437.247	27
438.473	33
439.699	31
440.925	30
442.15	34
443.376	32
444.601	30
445.826	29
447.051	28
448.275	27
449.5	24
450.724	28
451.948	30
453.172	28
454.396	31
455.619	30
456.842	26
458.065	34
459.288	30
460.511	34
461.733	31
462.956	31
464.178	33
465.4	27
466.621	28
467.843	32
469.064	28
470.285	30
471.505	39
472.726	36
473.946	37
475.166	35
476.387	36
477.606	39
478.825	42
480.044	41
481.264	38
482.483	36
483.702	48
484.921	50
486.138	43
487.356	51
488.574	52
489.792	48
491.009	51
492.226	52
493.444	46
494.661	45
495.877	44
497.094	44
498.31	51
499.525	45
500.741	40
501.958	36
503.172	42
504.388	40
505.603	38
506.817	40
508.032	36
509.247	40
510.46	34
511.675	33
512.888	34
514.102	36
515.316	39
516.528	38
517.742	31
518.954	28
520.167	31
521.378	31
522.591	29
523.802	28
525.015	31
526.226	34
527.438	30
528.648	28
529.86	34
531.07	30
532.281	33
533.491	24
534.702	30
535.911	28
537.121	31
538.33	30
539.54	30
540.749	32
541.957	31
543.167	34
544.375	31
545.584	32
546.791	28
547.999	31
549.207	29
550.414	22
551.621	35
552.829	33
554.035	36
555.241	34
556.449	29
557.655	30
558.86	31
560.066	31
561.272	32
562.477	36
563.682	30
564.888	33
566.093	33
567.297	33
568.501	30
569.705	30
570.91	30
572.114	30
573.317	26
574.52	27
575.723	30
576.927	31
578.13	28
579.332	30
580.535	32
581.737	22
582.938	37
584.14	31
585.343	26
586.544	30
587.745	32
588.946	28
590.147	30
591.347	29
592.548	33
593.748	31
594.948	28
596.147	32
597.347	31
598.546	27
599.745	28
600.944	30
602.143	26
603.342	28
604.54	28
605.738	30
606.937	30
608.134	38
609.332	34
610.529	31
611.727	28
612.924	32
614.121	28
615.317	30
616.513	30
617.709	30
618.905	32
620.101	32
621.297	31
622.492	32
623.688	36
624.883	31
626.077	28
627.271	32
628.466	32
629.66	28
630.855	32
632.047	32
633.241	28
634.435	28
635.629	28
636.82	36
638.014	39
639.207	30
640.399	33
641.59	30
642.783	34
643.975	24
645.166	29
646.357	36
647.549	33
648.741	33
649.93	28
651.122	30
652.311	30
653.502	28
654.692	33
655.881	31
657.071	34
658.261	30
659.45	36
660.639	30
661.827	32
663.016	30
664.204	32
665.393	30
666.581	30
667.769	32
668.957	34
670.143	27
671.331	31
672.518	36
673.705	28
674.891	28
676.078	35
677.264	33
678.451	36
679.636	32
680.821	30
682.007	34
683.192	36
684.378	32
685.562	35
686.747	34
687.931	36
689.115	37
690.3	38
691.483	32
692.666	34
693.851	32
695.034	30
696.216	30
697.4	36
698.582	36
699.764	36
700.948	36
702.129	38
703.311	34
704.493	38
705.674	42
706.855	48
708.036	40
709.218	46
710.399	45
711.579	44
712.759	38
713.939	41
715.12	40
716.299	36
717.478	33
718.657	36
719.836	33
721.015	31
722.195	32
723.373	30
724.552	33
725.729	35
726.907	37
728.085	30
729.262	31
730.44	30
731.617	30
732.795	24
733.972	33
735.148	30
736.324	36
737.501	26
738.677	32
739.852	34
741.028	30
742.203	33
743.379	34
744.554	24
745.729	26
746.903	30
748.078	28
749.252	31
750.426	32
751.599	35
752.772	34
753.946	29
755.119	31
756.293	32
757.466	24
758.639	27
759.811	35
760.984	30
762.155	30
763.327	33
764.499	31
765.67	28
766.842	27
768.013	32
769.183	34
770.354	29
771.525	27
772.696	32
773.865	33
775.035	35
776.205	27
777.375	30
778.544	28
779.713	28
780.882	30
782.052	30
783.219	38
784.388	31
785.557	32
786.724	34
787.892	32
789.06	33
790.227	38
791.395	35
792.562	32
793.728	32
794.895	32
796.061	30
797.228	30
798.395	24
799.56	33
800.726	31
801.891	33
803.057	28
804.221	30
805.387	35
806.551	34
807.716	34
808.879	31
810.044	31
811.208	28
812.372	30
813.535	28
814.699	26
815.862	32
817.025	31
818.188	36
819.351	26
820.513	29
821.675	26
822.837	32
823.999	33
825.161	35
826.322	24
827.483	30
828.645	26
829.805	33
830.966	26
832.127	30
833.287	29
834.447	27
835.607	36
836.767	30
837.926	25
839.085	26
840.245	32
841.404	28
842.562	33
843.72	27
844.88	32
846.038	28
847.195	32
848.353	27
849.512	30
850.669	32
851.826	29
852.983	28
854.139	30
855.296	32
856.453	24
857.609	28
858.765	24
859.921	34
861.077	32
862.232	30
863.387	35
864.542	31
865.697	24
866.852	30
868.008	30
869.162	26
870.316	34
871.47	32
872.624	32
873.778	32
874.931	35
876.084	30
877.237	30
878.39	34
879.543	29
880.695	26
881.846	30
882.999	29
884.151	30
885.302	30
886.454	35
887.606	32
888.757	28
889.908	26
891.059	28
892.21	28
893.359	30
894.509	29
895.659	28
896.81	26
897.959	30
899.109	27
900.257	32
901.407	35
902.556	29
903.705	24
904.854	31
906.001	26
907.149	32
908.298	28
909.446	33
910.592	32
911.74	32
912.888	31
914.034	27
915.181	29
916.328	30
917.473	28
918.62	24
919.766	24
920.911	30
922.058	28
923.204	32
924.348	29
925.494	29
926.638	26
927.783	30
928.928	28
930.072	25
931.216	27
932.36	26
933.504	26
934.647	26
935.791	29
936.933	32
938.077	28
939.219	25
940.363	28
941.504	29
942.647	24
943.789	32
944.932	28
946.073	28
947.215	31
948.356	32
949.498	32
950.638	35
951.778	30
952.92	26
954.06	32
955.199	30
956.34	22
957.479	30
958.62	29
959.759	26
960.898	31
962.038	26
963.176	24
964.315	30
965.453	29
966.592	29
967.73	27
968.867	30
970.006	24
971.144	26
972.281	26
973.418	32
974.554	27
975.692	24
976.829	31
977.965	26
979.101	28
980.237	30
981.374	31
982.509	29
983.645	30
984.78	30
985.915	28
987.05	26
988.184	33
989.319	32
990.453	24
991.589	29
992.722	30
993.856	28
994.99	34
996.123	26
997.257	28
998.39	26
999.523	28
1000.66	26
1001.79	30
1002.92	25
1004.05	30
1005.18	26
1006.32	32
1007.45	26
1008.58	26
1009.71	26
1010.84	24
1011.97	30
1013.1	24
1014.23	26
1015.36	27
1016.49	24
1017.62	27
1018.75	32
1019.88	26
1021.01	27
1022.14	24
1023.27	29
1024.4	28
1025.53	29
1026.66	29
1027.79	27
1028.91	24
1030.04	27
1031.17	27
1032.3	28
1033.42	24
1034.55	26
1035.68	24
1036.81	26
1037.93	30
1039.06	26
1040.18	34
1041.31	30
1042.44	30
1043.56	28
1044.69	24
1045.81	28
1046.94	29
1048.06	28
1049.19	30
1050.31	35
1051.44	31
1052.56	30
1053.69	30
1054.81	27
1055.93	29
1057.06	28
1058.18	29
1059.3	26
1060.43	32
1061.55	27
1062.67	29
1063.79	32
1064.92	31
1066.04	31
1067.16	24
1068.28	26
1069.4	32
1070.52	24
1071.65	30
1072.77	26
1073.89	27
1075.01	32
1076.13	30
1077.25	26
1078.37	30
1079.49	22
1080.61	26
1081.73	30
1082.85	30
1083.97	26
1085.09	24
1086.2	30
1087.32	28
1088.44	24
1089.56	30
1090.68	24
1091.8	28
1092.91	27
1094.03	28
1095.15	30
1096.26	29
1097.38	28
1098.5	24
1099.61	29
1100.73	26
1101.85	27
1102.96	26
1104.08	27
1105.19	30
1106.31	29
1107.43	32
1108.54	28
1109.66	26
1110.77	31
1111.88	28
1113	29
1114.11	27
1115.23	22
1116.34	29
1117.46	26
1118.57	29
1119.68	26
1120.8	28
1121.91	26
1123.02	29
1124.13	24
1125.25	29
1126.36	30
1127.47	28
1128.58	25
1129.69	27
1130.8	31
1131.92	29
1133.03	24
1134.14	24
1135.25	29
1136.36	29
1137.47	27
1138.58	26
1139.69	26
1140.8	26
1141.91	27
1143.02	31
1144.13	26
1145.24	30
1146.35	26
1147.46	32
1148.56	30
1149.67	28
1150.78	29
1151.89	26
1153	28
1154.1	24
1155.21	24
1156.32	28
1157.43	24
1158.53	31
1159.64	27
1160.75	33
1161.85	31
1162.96	23
1164.07	24
1165.17	30
1166.28	32
1167.38	26
1168.49	26
1169.59	32
1170.7	26
1171.8	24
1172.91	28
1174.01	30
1175.12	28
1176.22	27
1177.32	30
1178.43	29
1179.53	26
1180.64	26
1181.74	28
1182.84	26
1183.94	27
1185.05	32
1186.15	28
1187.25	35
1188.35	30
1189.46	26
1190.56	35
1191.66	30
1192.76	28
1193.86	28
1194.96	25
1196.06	24
1197.16	25.9457
1198.26	23.9813
1199.37	28.0114
1200.47	27.9867
1201.57	28.7843
1202.67	26.0052
1203.77	27.0394
1204.86	26.0339
1205.96	30.4903
1207.06	26.1074
1208.16	29.8328
1209.26	20.9775
1210.36	22.9977
1211.46	23.9934
1212.56	27.8486
1213.65	23.4853
1214.75	26
1215.85	27.7251
1216.95	29.4265
1218.04	28.3122
1219.14	27.9461
1220.24	24.1024
1221.33	25.9813
1222.43	25.9126
1223.53	24.7885
1224.62	27.854
1225.72	25.1912
1226.82	26.7247
1227.91	24.4987
1229.01	29.0195
1230.1	26.773
1231.2	21.4517
1232.29	25.164
1233.39	27.651
1234.48	25.2111
1235.58	27.6419
1236.67	24.797
1237.77	29.1837
1238.86	22.4718
1239.95	27.1526
1241.05	24.2893
1242.14	28.4789
1243.23	29.1164
1244.33	29.8474
1245.42	28.365
1246.51	29.6402
1247.61	26.2436
1248.7	29.4128
1249.79	27.0294
1250.88	27.5007
1251.97	30.0089
1253.07	28.6962
1254.16	27.6108
1255.25	25.6124
1256.34	29.8941
1257.43	30.3838
1258.52	27.7304
1259.61	27.1459
1260.7	25.9181
1261.79	26.8537
1262.88	29.0471
1263.97	29.0595
1265.06	30.8412
1266.15	29.8093
1267.24	28.1471
1268.33	25.6314
1269.42	28.3258
1270.51	27.7174
1271.6	24.557
1272.68	27.8529
1273.77	26.299
1274.86	26.1318
1275.95	26.3047
1277.04	28.6139
1278.12	25.4132
1279.21	26.3489
1280.3	26.8586
1281.39	29.7178
1282.47	27.146
1283.56	28.643
1284.65	29.2893
1285.73	25.6531
1286.82	28.8186
1287.91	28.4245
1288.99	26.8191
1290.08	29.7429
1291.16	26.0317
1292.25	24.6444
1293.33	26.2375
1294.42	29.2308
1295.5	29.2459
1296.59	27.1682
1297.67	26.3826
1298.76	27.7905
1299.84	26.8038
1300.92	33.6443
1302.01	30.9436
1303.09	24.5612
1304.17	28.0743
1305.26	29.8971
1306.34	29.671
1307.34	26
1308.43	32
1309.52	29
1310.61	25
1311.7	25
1312.78	31
1313.87	28
1314.96	26
1316.04	24
1317.13	24
1318.22	22
1319.3	29
1320.39	22
1321.48	27
1322.56	26
1323.65	27
1324.73	26
1325.82	24
1326.9	28
1327.99	26
1329.07	30
1330.16	23
1331.24	28
1332.33	31
1333.41	22
1334.5	27
1335.58	20
1336.66	27
1337.75	26
1338.83	29
1339.91	32
1341	32
1342.08	28
1343.16	30
1344.24	30
1345.33	24
1346.41	30
1347.49	30
1348.57	28
1349.65	26
1350.74	32
1351.82	28
1352.9	26
1353.98	26
1355.06	26
1356.14	24
1357.22	26
1358.3	31
1359.38	24
1360.46	24
1361.54	21
1362.62	29
1363.7	28
1364.78	27
1365.86	31
1366.94	34
1368.02	29
1369.09	28
1370.17	26
1371.25	25
1372.33	28
1373.41	27
1374.48	27
1375.56	29
1376.64	26
1377.72	26
1378.79	30
1379.87	28
1380.95	26
1382.02	26
1383.1	24
1384.17	24
1385.25	28
1386.33	26
1387.4	27
1388.48	26
1389.55	24
1390.63	28
1391.7	25
1392.78	26
1393.85	25
1394.93	30
1396	33
1397.07	32
1398.15	28
1399.22	27
1400.3	32
1401.37	30
1402.44	28
1403.52	28
1404.59	32
1405.66	28
1406.73	28
1407.81	34
1408.88	31
1409.95	28
1411.02	30
1412.09	32
1413.17	30
1414.24	33
1415.31	32
1416.38	34
1417.45	28
1418.52	26
1419.59	35
1420.66	28
1421.73	24
1422.8	31
1423.87	29
1424.94	28
1426.01	28
1427.08	32
1428.15	26
1429.22	25
1430.29	30
1431.35	30
1432.42	30
1433.49	30
1434.56	22
1435.63	27
1436.69	34
1437.76	26
1438.83	26
1439.9	31
1440.96	33
1442.03	29
1443.1	29
1444.17	32
1445.23	28
1446.3	28
1447.36	30
1448.43	26
1449.49	30
1450.56	30
1451.63	26
1452.69	33
1453.76	31
1454.82	30
1455.89	26
1456.95	34
1458.01	22
1459.08	28
1460.14	28
1461.21	26
1462.27	27
1463.34	27
1464.4	32
1465.46	25
1466.52	32
1467.59	28
1468.65	31
1469.71	32
1470.77	33
1471.84	28
1472.9	27
1473.96	28
1475.02	26
1476.08	28
1477.15	26
1478.21	32
1479.27	28
1480.33	32
1481.39	28
1482.45	28
1483.51	32
1484.57	25
1485.63	30
1486.69	27
1487.75	32
1488.81	27
1489.87	26
1490.93	28
1491.99	28
1493.05	29
1494.1	28
1495.16	29
1496.22	34
1497.28	25
1498.34	28
1499.4	32
1500.45	22
1501.51	26
1502.57	32
1503.63	30
1504.68	28
1505.74	28
1506.8	23
1507.85	27
1508.91	26
1509.97	32
1511.02	27
1512.08	27
1513.13	25
1514.19	34
1515.24	29
1516.3	32
1517.35	28
1518.41	29
1519.46	24
1520.52	28
1521.57	28
1522.63	28
1523.68	32
1524.73	32
1525.79	28
1526.84	29
1527.9	28
1528.95	24
1530	34
1531.05	29
1532.11	27
1533.16	26
1534.21	30
1535.26	26
1536.32	31
1537.37	26
1538.42	32
1539.47	30
1540.52	31
1541.57	28
1542.63	32
1543.68	29
1544.73	34
1545.78	26
1546.83	32
1547.88	31
1548.93	29
1549.98	28
1551.03	26
1552.08	26
1553.13	30
1554.18	26
1555.23	26
1556.27	29
1557.32	26
1558.37	26
1559.42	30
1560.47	33
1561.52	24
1562.56	30
1563.61	32
1564.66	29
1565.71	30
1566.75	26
1567.8	29
1568.85	30
1569.9	25
1570.94	26
1571.99	26
1573.03	25
1574.08	28
1575.13	30
1576.17	28
1577.22	28
1578.26	28
1579.31	30
1580.35	29
1581.4	28
1582.44	26
1583.49	32
1584.53	28
1585.58	24
1586.62	30
1587.66	27
1588.71	29
1589.75	28
1590.8	36
1591.84	30
1592.88	22
1593.92	28
1594.97	26
1596.01	22
1597.05	32
1598.1	26
1599.14	30
1600.18	29
1601.22	31
1602.26	27
1603.3	23
1604.35	30
1605.39	32
1606.43	28
1607.47	26
1608.51	32
1609.55	30
1610.59	25
1611.63	24
1612.67	28
1613.71	28
1614.75	28
1615.79	26
1616.83	31
1617.87	28
1618.91	28
1619.95	31
1620.99	29
1622.02	31
1623.06	26
1624.1	30
1625.14	27
1626.18	26
1627.21	33
1628.25	31
1629.29	27
1630.33	28
1631.36	32
1632.4	29
1633.44	29
1634.48	28
1635.51	28
1636.55	27
1637.58	28
1638.62	30
1639.66	30
1640.69	30
1641.73	31
1642.76	33
1643.8	26
1644.83	31
1645.87	30
1646.9	29
1647.94	30
1648.97	32
1650	28
1651.04	26
1652.07	29
1653.11	30
1654.14	26
1655.17	31
1656.21	27
1657.24	25
1658.27	33
1659.31	27
1660.34	26
1661.37	35
1662.4	26
1663.43	27
1664.47	29
1665.5	26
1666.53	24
1667.56	28
1668.59	28
1669.62	26
1670.66	26
1671.69	26
1672.72	29
1673.75	30
1674.78	28
1675.81	26
1676.84	28
1677.87	28
1678.9	24
1679.93	31
1680.96	31
1681.98	29
1683.01	24
1684.04	32
1685.07	34
1686.1	31
1687.13	23
1688.16	34
1689.18	26
1690.21	26
1691.24	29
1692.27	29
1693.3	30
1694.32	26
1695.35	27
1696.38	29
1697.4	25
1698.43	26
1699.46	25
1700.48	24
1701.51	28
1702.54	33
1703.56	30
1704.59	28
1705.61	23
1706.64	22
1707.66	32
1708.69	27
1709.71	30
1710.74	31
1711.76	26
1712.79	30
1713.81	26
1714.83	28
1715.86	28
1716.88	27
1717.91	25
1718.93	32
1719.95	31
1720.98	28
1722	26
1723.02	28
1724.04	27
1725.07	25
1726.09	25
1727.11	22
1728.13	32
1729.15	27
1730.18	28
1731.2	28
1732.22	29
1733.24	24
1734.26	32
1735.28	28
1736.3	24
1737.32	31
1738.34	22
1739.36	23
1740.38	31
1741.4	28
1742.42	28
1743.44	31
1744.46	30
1745.48	32
1746.5	30
1747.52	31
1748.54	28
1749.56	30
1750.58	30
1751.6	24
1752.61	28
1753.63	27
1754.65	24
1755.67	22
1756.68	28
1757.7	26
1758.72	26
1759.74	30
1760.75	24
1761.77	24
1762.79	26
1763.8	27
1764.82	26
1765.83	31
1766.85	29
1767.87	28
1768.88	31
1769.9	26
1770.91	26
1771.93	28
1772.94	27
1773.96	30
1774.97	28
1775.99	26
1777	27
1778.02	29
1779.03	27
1780.04	32
1781.06	30
1782.07	26
1783.09	28
1784.1	24
1785.11	31
1786.13	26
1787.14	29
1788.15	23
1789.16	26
1790.18	30
1791.19	25
1792.2	24
1793.21	27
1794.22	28
1795.23	26
1796.25	30
1797.26	26
1798.27	24
1799.28	28
1800.29	20
1801.3	24
1802.31	32
1803.32	27
1804.33	29
1805.34	30
1806.35	30
1807.36	26
1808.37	30
1809.38	27
1810.39	30
1811.4	33
1812.41	27
1813.42	26
1814.42	34
1815.43	29
1816.44	30
1817.45	28
1818.46	29
1819.47	32
1820.47	30
1821.48	22
1822.49	25
1823.49	27
1824.5	26
1825.51	31
1826.52	30
1827.52	24
1828.53	27
1829.53	28
1830.54	27
1831.55	31
1832.55	30
1833.56	26
1834.56	28
1835.57	28
1836.57	28
1837.58	25
1838.58	24
1839.59	28
1840.59	28
1841.6	24
1842.6	27
1843.61	30
1844.61	27
1845.61	23
1846.62	24
1847.62	28
1848.62	28
1849.63	30
1850.63	28
1851.63	28
1852.64	24
1853.64	26
1854.64	28
1855.64	30
1856.64	33
1857.65	26
1858.65	26
1859.65	26
1860.65	28
1861.65	30
1862.65	32
1863.65	29
1864.66	27
1865.66	28
1866.66	28
1867.66	26
1868.66	30
1869.66	28
1870.66	26
1871.66	27
1872.66	35
1873.66	26
1874.66	28
1875.65	31
1876.65	26
1877.65	28
1878.65	27
1879.65	30
1880.65	23
1881.65	22
1882.64	29
1883.64	28
1884.64	28
1885.64	30
1886.63	26
1887.63	29
1888.63	24
1889.63	26
1890.62	33
1891.62	32
1892.62	33
1893.61	27
1894.61	28
1895.6	28
1896.6	24
1897.6	25
1898.59	26
1899.59	25
1900.58	26
1901.58	28
1902.57	25
1903.57	22
1904.56	30
1905.56	26
1906.55	26
1907.54	30
1908.54	23
1909.53	28
1910.53	30
1911.52	27
1912.51	28
1913.51	30
1914.5	24
1915.49	27
1916.49	26
1917.48	22
1918.47	30
1919.46	29
1920.46	30
1921.45	24
1922.44	30
1923.43	27
1924.42	28
1925.41	20
1926.41	30
1927.4	28
1928.39	28
1929.38	34
1930.37	28
1931.36	22
1932.35	26
1933.34	30
1934.33	27
1935.32	28
1936.31	22
1937.3	25
1938.29	22
1939.28	30
1940.27	24
1941.26	25
1942.24	27
1943.23	28
1944.22	28
1945.21	23
1946.2	26
1947.19	28
1948.17	26
1949.16	29
1950.15	26
1951.14	22
1952.12	28
1953.11	29
1954.1	31
1955.09	26
1956.07	24
1957.06	28
1958.05	28
1959.03	31
1960.02	26
1961	30
1961.99	25
1962.98	33
1963.96	27
1964.95	27
1965.93	27
1966.92	27
1967.9	24
1968.89	31
1969.87	29
1970.85	26
1971.84	29
1972.82	28
1973.81	26
1974.79	28
1975.78	25
1976.76	30
1977.74	29
1978.73	26
1979.71	26
1980.69	29
1981.67	30
1982.66	22
1983.64	30
1984.62	27
1985.6	30
1986.59	22
1987.57	25
1988.55	20
1989.53	26
1990.51	26
1991.49	29
1992.47	27
1993.45	27
1994.44	29
1995.42	30
1996.4	27
1997.38	30
1998.36	21
1999.34	27
2000.32	24
2001.3	28
2002.28	26
2003.26	26
2004.24	22
2005.22	28
2006.19	24
2007.17	28
2008.15	26
2009.13	28
2010.11	30
2011.09	30
2012.06	26
2013.04	27
2014.02	30
2015	28
2015.98	31
2016.95	26
2017.93	30
2018.91	26
2019.88	29
2020.86	24
2021.84	29
2022.81	22
2023.79	26
2024.77	24
2025.74	28
2026.72	32
2027.69	30
2028.67	23
2029.65	32
2030.62	26
2031.6	29
2032.57	28
2033.55	28
2034.52	25
2035.5	27
2036.47	24
2037.44	28
2038.42	24
2039.39	25
2040.36	27
2041.34	32
2042.31	24
2043.29	18
2044.26	25
2045.23	28
2046.2	22
2047.18	31
2048.15	24
2049.12	30
2050.09	32
2051.07	30
2052.04	26
2053.01	24
2053.98	24
2054.95	26
2055.93	28
2056.9	26
2057.87	29
2058.84	28
2059.81	28
2060.78	26
2061.75	29
2062.72	26
2063.69	24
2064.66	25
2065.63	24
2066.6	26
2067.57	31
2068.54	32
2069.51	24
2070.48	26
2071.45	31
2072.42	22
2073.38	25
2074.35	26
2075.32	24
2076.29	27
2077.26	26
2078.23	22
2079.19	27
2080.16	32
2081.13	27
2082.1	30
2083.06	30
2084.03	23
2085	27
2085.96	27
2086.93	28
2087.9	22
2088.86	24
2089.83	29
2090.8	25
2091.76	26
2092.73	26
2093.69	28
2094.66	25
2095.62	28
2096.59	21
2097.55	24
2098.52	26
2099.48	27
2100.45	28
2101.41	28
2102.38	31
2103.34	30
2104.31	26
2105.27	27
2106.23	20
2107.2	29
2108.16	22
2109.12	25
2110.09	25
2111.05	30
2112.01	28
2112.98	25
2113.94	27
2114.9	30
2115.86	29
2116.82	27
2117.79	26
2118.75	30
2119.71	28
2120.67	28
2121.63	29
2122.59	24
2123.55	24
2124.52	26
2125.48	28
2126.44	22
2127.4	30
2128.36	26
2129.32	31
2130.28	27
2131.24	25
2132.2	24
2133.16	22
2134.12	27
2135.08	26
2136.04	28
2136.99	31
2137.95	30
2138.91	28
2139.87	26
2140.83	27
2141.79	22
2142.75	24
2143.7	26
2144.66	29
2145.62	23.0266
2146.58	23.9893
2147.53	28.9327
2148.49	23.1751
2149.45	23.7489
2150.41	25.792
2151.36	23.0848
2152.32	28.0602
2153.27	25.0648
2154.23	22.9166
2155.19	25.8084
2156.14	24.3336
2157.1	27.7818
2158.06	26.7778
2159.01	27.9778
2159.97	22.8642
2160.92	26.1643
2161.88	24.6863
2162.83	28.8154
2163.79	19.3382
2164.74	17.6088
2165.7	24
2166.65	24.6524
2167.61	26.6408
2168.56	24.7479
2169.51	26.4704
2170.47	27.4982
2171.42	23.3372
2172.38	27.2938
2173.33	28.2736
2174.28	24.9784
2175.24	27.1108
2176.19	25.767
2177.14	22.0835
2178.09	26.7877
2179.05	26.1049
2180	24.5954
2180.95	25.6658
2181.9	26.5264
2182.86	23.3034
2183.81	22.3552
2184.76	23.7552
2185.71	26.4083
2186.66	22.5515
2187.61	22.4543
2188.57	24.6032
2189.52	22.943
2190.47	26.3357
2191.42	23.3567
2192.37	23.9706
2193.32	23.5724
2194.27	25.1971
2195.22	22.2894
2196.17	23.9504
2197.12	23.3785
2198.07	26.8899
2199.02	23.5051
2199.97	22.2001
2200.92	21.1011
2201.87	26.5972
2202.82	25.1863
2203.76	24.2569
2204.71	27.1675
2205.66	28.6225
2206.61	25.0898
2207.56	25.5652
2208.51	25.5982
2209.45	25.869
2210.4	27.8277
2211.35	25.2015
2212.3	26.0241
2213.24	24.5575
2214.19	27.0031
2215.14	26.7575
2216.09	25.4869
2217.03	24.5575
2217.98	26.9349
2218.93	25.0392
2219.87	25.2313
2220.82	25
2221.77	25.5442
2222.71	27.4951
2223.66	28
2224.6	26.3534
2225.55	25.5804
2226.49	27.5847
2227.44	25.0442
2228.38	23.7015
2229.33	23.7353
2230.27	26.6216
2231.22	25.6276
2232.16	25.5434
2233.11	26.2794
2234.05	23.319
2235	23.8688
2235.94	26.9084
2236.88	24.1292
2237.83	23.8971
2238.77	27.2632
2239.71	25.428
2240.66	24.8016
2241.6	24.2606
2242	23
2242.95	23
2243.9	18
2244.84	26
2245.79	28
2246.74	29
2247.69	26
2248.63	25
2249.58	29
2250.53	22
2251.47	20
2252.42	30
2253.37	26
2254.31	28
2255.26	28
2256.2	26
2257.15	24
2258.1	26
2259.04	26
2259.99	31
2260.93	22
2261.88	24
2262.82	24
2263.77	24
2264.71	18
2265.65	27
2266.6	26
2267.54	25
2268.49	23
2269.43	26
2270.38	27
2271.32	29
2272.26	24
2273.21	28
2274.15	30
2275.09	24
2276.04	29
2276.98	24
2277.92	29
2278.86	26
2279.81	29
2280.75	26
2281.69	23
2282.63	22
2283.57	24
2284.52	25
2285.46	27
2286.4	24
2287.34	29
2288.28	25
2289.22	26
2290.16	26
2291.1	28
2292.04	22
2292.98	24
2293.93	24
2294.86	26
2295.8	21
2296.74	24
2297.69	28
2298.62	25
2299.56	26
2300.5	26
2301.44	23
2302.38	23
2303.32	26
2304.26	23
2305.2	31
2306.14	29
2307.07	26
2308.01	28
2308.95	28
2309.89	26
2310.83	29
2311.76	24
2312.7	26
2313.64	28
2314.58	23
2315.51	26
2316.45	29
2317.39	27
2318.32	28
2319.26	28
2320.2	31
2321.13	28
2322.07	29
2323	26
2323.94	27
2324.88	29
2325.81	30
2326.75	28
2327.68	24
2328.62	25
2329.55	22
2330.49	24
2331.42	24
2332.36	25
2333.29	30
2334.22	26
2335.16	27
2336.09	25
2337.03	29
2337.96	27
2338.89	23
2339.83	29
2340.76	27
2341.69	28
2342.63	24
2343.56	26
2344.49	22
2345.43	29
2346.36	29
2347.29	26
2348.22	24
2349.15	26
2350.09	24
2351.02	25
2351.95	28
2352.88	27
2353.81	24
2354.74	31
2355.67	30
2356.61	22
2357.54	22
2358.47	22
2359.4	18
2360.33	27
2361.26	30
2362.19	27
2363.12	28
2364.05	30
2364.98	26
2365.91	24
2366.84	31
2367.77	28
2368.7	26
2369.62	32
2370.55	28
2371.48	26
2372.41	29
2373.34	26
2374.27	24
2375.2	27
2376.12	26
2377.05	28
2377.98	30
2378.91	28
2379.83	26
2380.76	29
2381.69	24
2382.62	31
2383.54	21
2384.47	27
2385.4	28
2386.32	24
2387.25	23
2388.18	26
2389.1	26
2390.03	26
2390.95	28
2391.88	22
2392.81	25
2393.73	28
2394.66	22
2395.58	29
2396.51	31
2397.43	25
2398.36	28
2399.28	24
2400.2	24
2401.13	25
2402.05	26
2402.98	28
2403.9	27
2404.83	30
2405.75	25
2406.67	27
2407.6	28
2408.52	26
2409.44	22
2410.37	27
2411.29	28
2412.21	28
2413.13	25
2414.06	24
2414.98	28
2415.9	27
2416.82	29
2417.74	27
2418.67	20
2419.59	26
2420.51	22
2421.43	22
2422.35	30
2423.27	27
2424.19	18
2425.11	24
2426.03	24
2426.96	22
2427.88	26
2428.8	24
2429.72	23
2430.64	25
2431.56	29
2432.48	28
2433.39	26
2434.31	28
2435.23	28
2436.15	28
2437.07	32
2437.99	30
2438.91	32
2439.83	29
2440.75	26
2441.67	28
2442.58	27
2443.5	33
2444.42	24
2445.34	24
2446.26	28
2447.17	27
2448.09	32
2449.01	29
2449.92	28
2450.84	28
2451.76	29
2452.68	23
2453.59	29
2454.51	26
2455.42	26
2456.34	22
2457.26	26
2458.17	30
2459.09	22
2460	27
2460.92	28
2461.83	28
2462.75	32
2463.66	26
2464.58	29
2465.49	32
2466.41	29
2467.32	26
2468.24	26
2469.15	26
2470.07	22
2470.98	32
2471.89	29
2472.81	28
2473.72	25
2474.64	29
2475.55	27
2476.46	26
2477.37	24
2478.29	29
2479.2	28
2480.11	34
2481.03	26
2481.94	30
2482.85	29
2483.76	22
2484.67	26
2485.59	28
2486.5	31
2487.41	30
2488.32	24
2489.23	27
2490.14	27
2491.05	27
2491.97	26
2492.88	20
2493.79	22
2494.7	22
2495.61	33
2496.52	23
2497.43	26
2498.34	23
2499.25	25
2500.16	28
2501.07	29
2501.98	26
2502.89	25
2503.79	26
2504.7	24
2505.61	29
2506.52	27
2507.43	28
2508.34	26
2509.25	30
2510.16	25
2511.06	29
2511.97	26
2512.88	29
2513.79	26
2514.69	28
2515.6	24
2516.51	25
2517.42	26
2518.32	24
2519.23	25
2520.14	28
2521.04	33
2521.95	26
2522.86	24
2523.76	24
2524.67	18
2525.57	28
2526.48	25
2527.39	28
2528.29	22
2529.2	27
2530.1	27
2531.01	20
2531.91	25
2532.82	29
2533.72	27
2534.63	30
2535.53	29
2536.44	26
2537.34	26
2538.24	32
2539.15	28
2540.05	27
2540.96	30
2541.86	28
2542.76	25
2543.67	29
2544.57	25
2545.47	26
2546.37	29
2547.28	22
2548.18	24
2549.08	24
2549.99	25
2550.89	28
2551.79	24
2552.69	25
2553.59	30
2554.49	28
2555.4	26
2556.3	26
2557.2	26
2558.1	27
2559	30
2559.9	28
2560.8	22
2561.7	27
2562.6	30
2563.5	28
2564.4	18
2565.3	30
2566.2	32
2567.1	26
2568	26
2568.9	26
2569.8	26
2570.7	20
2571.6	22
2572.5	26
2573.4	27
2574.3	34
2575.2	29
2576.1	24
2576.99	25
2577.89	26
2578.79	26
2579.69	29
2580.59	25
2581.48	32
2582.38	26
2583.28	29
2584.18	26
2585.07	27
2585.97	26
2586.87	30
2587.76	27
2588.66	24
2589.56	25
2590.45	27
2591.35	22
2592.25	31
2593.14	28
2594.04	27
2594.93	28
2595.83	27
2596.73	24
2597.62	31
2598.52	31
2599.41	28
2600.31	27
2601.2	28
2602.1	30
2602.99	26
2603.88	24
2604.78	30
2605.67	26
2606.57	26
2607.46	26
2608.35	30
2609.25	30
2610.14	21
2611.03	28
2611.93	26
2612.82	27
2613.71	24
2614.61	30
2615.5	26
2616.39	26
2617.29	30
2618.18	25
2619.07	26
2619.96	28
2620.85	26
2621.75	31
2622.64	24
2623.53	24
2624.42	27
2625.31	25
2626.2	26
2627.09	26
2627.98	24
2628.88	30
2629.77	20
2630.66	28
2631.55	31
2632.44	32
2633.33	30
2634.22	26
2635.11	30
2636	24
2636.89	26
2637.78	21
2638.66	28
2639.55	28
2640.44	22
2641.33	29
2642.22	28
2643.11	28
2644	31
2644.89	28
2645.78	26
2646.66	26
2647.55	27
2648.44	32
2649.33	30
2650.21	20
2651.1	30
2651.99	26
2652.88	25
2653.76	25
2654.65	27
2655.54	26
2656.42	28
2657.31	32
2658.2	28
2659.08	26
2659.97	26
2660.86	29
2661.74	28
2662.63	28
2663.51	28
2664.4	26
2665.29	26
2666.17	27
2667.06	25
2667.94	30
2668.83	26
2669.71	26
2670.6	26
2671.48	24
2672.36	25
2673.25	26
2674.13	31
2675.02	29
2675.9	24
2676.78	29
2677.67	26
2678.55	26
2679.43	24
2680.32	26
2681.2	20
2682.08	24
2682.97	22
2683.85	28
2684.73	29
2685.61	33
2686.5	26
2687.38	25
2688.26	26
2689.14	30
2690.03	23
2690.91	18
2691.79	31
2692.67	24
2693.55	29
2694.43	27
2695.31	24
2696.19	26
2697.08	24
2697.96	25
2698.84	26
2699.72	30
2700.6	28
2701.48	32
2702.36	24
2703.24	24
2704.12	23
2705	26
2705.88	31
2706.76	24
2707.64	31
2708.51	29
2709.39	31
2710.27	22
2711.15	26
2712.03	26
2712.91	27
2713.79	30
2714.67	24
2715.54	28
2716.42	26
2717.3	28
2718.18	29
2719.05	25
2719.93	29
2720.81	28
2721.69	27
2722.56	26
2723.44	24
2724.32	28
2725.19	29
2726.07	26
2726.95	30
2727.82	30
2728.7	23
2729.58	31
2730.45	27
2731.33	30
2732.2	30
2733.08	28
2733.95	27
2734.83	29
2735.7	29
2736.58	26
2737.45	27
2738.33	27
2739.2	30
2740.08	26
2740.95	22
2741.83	28
2742.7	27
2743.58	26
2744.45	28
2745.32	30
2746.2	28
2747.07	30
2747.94	21
2748.82	31
2749.69	26
2750.56	26
2751.44	30
2752.31	23
2753.18	26
2754.05	26
2754.93	26
2755.8	24
2756.67	26
2757.54	28
2758.42	27
2759.29	28
2760.16	31
2761.03	31
2761.9	31
2762.77	30
2763.64	29
2764.51	29
2765.38	28
2766.26	25
2767.13	24
2768	28
2768.87	31
2769.74	29
2770.61	30
2771.48	31
2772.35	23
2773.22	26
2774.09	27
2774.96	30
2775.83	26
2776.7	26
2777.56	26
2778.43	28
2779.3	28
2780.17	32
2781.04	24
2781.91	27
2782.78	24
2783.64	28
2784.51	26
2785.38	31
2786.25	27
2787.12	31
2787.98	24
2788.85	24
2789.72	26
2790.59	26
2791.45	26
2792.32	22
2793.19	25
2794.05	28
2794.92	31
2795.79	24
2796.65	32
2797.52	32
2798.38	27
2799.25	31
2800.12	28
2800.98	29
2801.85	22
2802.71	31
2803.58	33
2804.44	32
2805.31	23
2806.17	29
2807.04	22
2807.9	26
2808.77	25
2809.63	25
2810.5	30
2811.36	30
2812.22	30
2813.09	27
2813.95	20
2814.82	26
2815.68	20
2816.54	26
2817.41	27
2818.27	24
2819.13	31
2820	29
2820.86	30
2821.72	31
2822.58	28
2823.45	28
2824.31	29
2825.17	28
2826.03	24
2826.9	27
2827.76	27
2828.62	30
2829.48	24
2830.34	33
2831.2	28
2832.06	30
2832.92	32
2833.79	24
2834.65	26
2835.51	29
2836.37	33
2837.23	25
2838.09	30
2838.95	28
2839.81	30
2840.67	20
2841.53	26
2842.39	26
2843.25	30
2844.11	26
2844.97	26
2845.83	28
2846.68	30
2847.54	26
2848.4	24
2849.26	32
2850.12	28
2850.98	28
2851.84	26
2852.69	24
2853.55	31
2854.41	28
2855.27	30
2856.13	26
2856.98	23
2857.84	29
2858.7	27
2859.56	33
2860.41	26
2861.27	31
2862.13	27
2862.98	28
2863.84	28
2864.7	26
2865.55	22
2866.41	28
2867.27	26
2868.12	27
2868.98	29
2869.83	33
2870.69	29
2871.54	31
2872.4	37
2873.25	30
2874.11	34
2874.96	28
2875.82	34
2876.68	26
2877.53	30
2878.38	34
2879.24	36
2880.09	31
2880.95	34
2881.8	30
2882.65	34
2883.51	36
2884.36	33
2885.22	33
2886.07	35
2886.92	37
2887.77	32
2888.63	34
2889.48	30
2890.33	40
2891.19	35
2892.04	34
2892.89	36
2893.74	38
2894.6	40
2895.45	44
2896.3	45
2897.15	39
2898	41
2898.85	52
2899.71	53
2900.56	46
2901.41	55
2902.26	50
2903.11	52
2903.96	59
2904.81	60
2905.66	56
2906.51	55
2907.36	56
2908.21	57
2909.06	52
2909.91	50
2910.76	51
2911.61	52
2912.46	54
2913.31	48
2914.16	52
2915.01	41
2915.86	46
2916.71	50
2917.56	46
2918.41	39
2919.26	36
2920.1	38
2920.95	34
2921.8	38
2922.65	35
2923.5	40
2924.34	40
2925.19	32
2926.04	33
2926.89	36
2927.74	36
2928.58	35
2929.43	30
2930.28	32
2931.12	29
2931.97	30
2932.82	22
2933.66	34
2934.51	29
2935.36	28
2936.2	28
2937.05	31
2937.89	30
2938.74	31
2939.59	28
2940.43	26
2941.28	28
2942.12	26
2942.97	26
2943.81	28
2944.66	25
2945.5	30
2946.35	28
2947.19	28
2948.04	26
2948.88	29
2949.72	30
2950.57	34
2951.41	29
2952.26	28
2953.1	26
2953.94	26
2954.79	34
2955.63	38
2956.47	32
2957.32	33
2958.16	36
2959	36
2959.85	36
2960.69	34
2961.53	41
2962.37	33
2963.22	39
2964.06	34
2964.9	38
2965.74	44
2966.58	38
2967.42	40
2968.27	41
2969.11	38
2969.95	39
2970.79	39
2971.63	34
2972.47	33
2973.31	39
2974.15	36
2974.99	30
2975.83	36
2976.68	30
2977.52	36
2978.36	32
2979.2	29
2980.04	30
2980.88	34
2981.71	32
2982.55	27
2983.39	32
2984.23	32
2985.07	29
2985.91	24
2986.75	22
2987.59	26
2988.43	28
2989.27	29
2990.1	29
2990.94	33
2991.78	28
2992.62	30
2993.46	26
2994.3	20
2995.13	26
2995.97	28
2996.81	28
2997.64	27
2998.48	32
2999.32	29
