#Acq. time (s)=	3
#Accumulations=	3
#Range (cm-¹)=	100...3000
#Windows=	3
#Autofocus=	Off
#AutoExposure=	Off
#Spike filter=	Multiple accum.
#Delay time (s)=	0
#Binning=	1
#Readout mode=	Signal
#DeNoise=	Off
#ICS correction=	Off
#Dark correction=	Off
#Inst. Process=	Off
#Instrument=	LabRAM HR Evol
#Detector=	Syncerity OE
#Objective=	x100_VIS_LWD
#Grating=	600 (500nm)
#ND Filter=	25%
#Laser=	633nm_Edge
#Hole=	100.021
#Range=	Visible
#Project=	Bolus
#Sample=	B2
#Site=	stripside
#Title=	m05
#Remark=	
#Date=	03.11.2025 17:48
#Acquired=	03.11.2025 17:48:01
100.969	32
102.252	37
103.535	36
104.818	28
106.101	29
107.384	34
108.666	28
109.948	32
111.232	36
112.514	33
113.795	32
115.077	33
116.358	32
117.639	30
118.919	32
120.2	33
121.48	32
122.76	29
124.04	40
125.32	35
126.599	26
127.879	32
129.158	36
130.436	34
131.715	37
132.992	31
134.27	32
135.548	38
136.826	38
138.104	34
139.381	34
140.658	36
141.935	30
143.212	36
144.489	34
145.763	33
147.04	36
148.315	39
149.591	40
150.867	37
152.142	36
153.416	37
154.691	41
155.965	38
157.24	42
158.514	40
159.786	39
161.06	35
162.334	38
163.607	46
164.881	42
166.152	38
167.425	40
168.698	39
169.969	36
171.241	35
172.513	38
173.785	38
175.055	35
176.326	38
177.597	32
178.867	38
180.137	38
181.408	42
182.677	42
183.947	35
185.217	34
186.485	40
187.755	40
189.022	48
190.291	40
191.56	38
192.828	38
194.096	42
195.363	37
196.631	37
197.899	36
199.165	39
200.432	38
201.698	40
202.965	36
204.23	42
205.497	38
206.762	35
208.028	38
209.293	38
210.559	37
211.823	40
213.088	37
214.352	36
215.617	32
216.88	34
218.145	38
219.408	36
220.672	34
221.934	31
223.196	39
224.46	34
225.722	32
226.985	33
228.246	34
229.508	33
230.77	38
232.031	36
233.292	28
234.554	34
235.814	31
237.074	35
238.335	30
239.595	36
240.854	33
242.115	34
243.374	32
244.633	28
245.893	34
247.151	31
248.409	33
249.667	28
250.927	31
252.184	35
253.442	31
254.699	29
255.957	32
257.214	32
258.47	28
259.727	28
260.983	25
262.24	28
263.496	32
264.752	36
266.007	30
267.262	30
268.517	30
269.773	34
271.028	29
272.282	24
273.536	30
274.79	28
276.044	28
277.297	28
278.551	30
279.804	30
281.057	27
282.31	32
283.564	28
284.816	32
286.068	32
287.32	30
288.572	29
289.823	30
291.074	28
292.325	30
293.576	33
294.827	31
296.077	30
297.328	35
298.578	24
299.828	35
301.077	28
302.325	36
303.575	28
304.824	28
306.073	20
307.321	30
308.57	35
309.818	26
311.066	33
312.314	25
313.562	28
314.808	34
316.055	27
317.302	30
318.549	33
319.796	24
321.042	32
322.288	28
323.533	28
324.779	30
326.024	31
327.27	30
328.515	37
329.759	31
331.004	32
332.248	34
333.493	30
334.736	33
335.98	29
337.223	26
338.466	26
339.709	33
340.952	33
342.195	33
343.437	32
344.68	28
345.922	29
347.163	31
348.405	32
349.647	32
350.887	29
352.128	36
353.37	28
354.609	28
355.85	34
357.089	26
358.33	28
359.57	27
360.809	33
362.049	28
363.287	26
364.526	30
365.764	29
367.003	36
368.241	32
369.479	29
370.718	34
371.955	32
373.193	28
374.429	29
375.667	30
376.903	33
378.139	28
379.376	26
380.611	34
381.848	28
383.083	31
384.319	26
385.554	31
386.79	28
388.024	34
389.258	31
390.493	28
391.727	30
392.962	27
394.195	32
395.428	30
396.663	28
397.895	30
399.128	28
400.361	24
401.593	31
402.825	30
404.058	31
405.29	30
406.521	31
407.752	31
408.985	31
410.215	32
411.446	33
412.678	30
413.908	28
415.138	34
416.367	28
417.597	35
418.828	30
420.057	26
421.286	34
422.514	28
423.743	34
424.973	33
426.201	31
427.429	34
428.657	32
429.884	34
431.112	29
432.34	27
433.567	33
434.794	34
436.02	35
437.247	30
438.473	24
439.699	32
440.925	28
442.15	32
443.376	29
444.601	28
445.826	28
447.051	29
448.275	33
449.5	31
450.724	31
451.948	31
453.172	27
454.396	30
455.619	33
456.842	33
458.065	28
459.288	26
460.511	26
461.733	32
462.956	34
464.178	32
465.4	31
466.621	27
467.843	28
469.064	35
470.285	32
471.505	30
472.726	38
473.946	33
475.166	39
476.387	34
477.606	41
478.825	44
480.044	42
481.264	44
482.483	47
483.702	53
484.921	58
486.138	50
487.356	54
488.574	56
489.792	56
491.009	63
492.226	64
493.444	54
494.661	52
495.877	52
497.094	49
498.31	48
499.525	48
500.741	46
501.958	44
503.172	38
504.388	34
505.603	32
506.817	39
508.032	38
509.247	39
510.46	40
511.675	36
512.888	34
514.102	34
515.316	34
516.528	36
517.742	26
518.954	29
520.167	32
521.378	36
522.591	30
523.802	37
525.015	36
526.226	32
527.438	36
528.648	31
529.86	29
531.07	36
532.281	34
533.491	31
534.702	34
535.911	33
537.121	25
538.33	30
539.54	28
540.749	33
541.957	31
543.167	30
544.375	32
545.584	31
546.791	31
547.999	31
549.207	34
550.414	30
551.621	33
552.829	32
554.035	30
555.241	35
556.449	28
557.655	30
558.86	35
560.066	36
561.272	30
562.477	27
563.682	29
564.888	26
566.093	33
567.297	31
568.501	35
569.705	30
570.91	32
572.114	33
573.317	36
574.52	28
575.723	31
576.927	28
578.13	32
579.332	31
580.535	27
581.737	35
582.938	29
584.14	26
585.343	31
586.544	29
587.745	29
588.946	32
590.147	32
591.347	32
592.548	26
593.748	31
594.948	32
596.147	34
597.347	28
598.546	34
599.745	30
600.944	27
602.143	30
603.342	31
604.54	31
605.738	31
606.937	29
608.134	34
609.332	30
610.529	33
611.727	30
612.924	28
614.121	31
615.317	26
616.513	28
617.709	30
618.905	31
620.101	30
621.297	34
622.492	30
623.688	32
624.883	34
626.077	28
627.271	27
628.466	30
629.66	30
630.855	24
632.047	31
633.241	31
634.435	32
635.629	31
636.82	29
638.014	34
639.207	34
640.399	32
641.59	30
642.783	35
643.975	32
645.166	29
646.357	30
647.549	30
648.741	32
649.93	32
651.122	31
652.311	32
653.502	32
654.692	28
655.881	32
657.071	32
658.261	26
659.45	35
660.639	34
661.827	31
663.016	28
664.204	34
665.393	34
666.581	34
667.769	33
668.957	37
670.143	30
671.331	33
672.518	30
673.705	33
674.891	31
676.078	32
677.264	33
678.451	33
679.636	40
680.821	30
682.007	34
683.192	32
684.378	30
685.562	39
686.747	35
687.931	39
689.115	38
690.3	38
691.483	36
692.666	36
693.851	38
695.034	32
696.216	42
697.4	36
698.582	28
699.764	40
700.948	34
702.129	38
703.311	38
704.493	45
705.674	46
706.855	48
708.036	48
709.218	49
710.399	44
711.579	46
712.759	48
713.939	43
715.12	40
716.299	32
717.478	36
718.657	33
719.836	34
721.015	30
722.195	31
723.373	34
724.552	36
725.729	30
726.907	37
728.085	29
729.262	28
730.44	33
731.617	33
732.795	30
733.972	32
735.148	24
736.324	25
737.501	32
738.677	32
739.852	24
741.028	28
742.203	32
743.379	26
744.554	30
745.729	32
746.903	33
748.078	28
749.252	33
750.426	33
751.599	28
752.772	31
753.946	32
755.119	30
756.293	29
757.466	34
758.639	24
759.811	32
760.984	24
762.155	32
763.327	24
764.499	29
765.67	31
766.842	27
768.013	28
769.183	28
770.354	31
771.525	34
772.696	24
773.865	35
775.035	34
776.205	34
777.375	33
778.544	26
779.713	27
780.882	31
782.052	28
783.219	36
784.388	34
785.557	37
786.724	36
787.892	32
789.06	32
790.227	31
791.395	31
792.562	34
793.728	35
794.895	37
796.061	32
797.228	34
798.395	30
799.56	34
800.726	34
801.891	33
803.057	31
804.221	30
805.387	30
806.551	28
807.716	22
808.879	31
810.044	30
811.208	32
812.372	36
813.535	24
814.699	31
815.862	31
817.025	26
818.188	29
819.351	32
820.513	26
821.675	29
822.837	27
823.999	30
825.161	30
826.322	30
827.483	30
828.645	31
829.805	31
830.966	30
832.127	30
833.287	31
834.447	33
835.607	34
836.767	28
837.926	31
839.085	32
840.245	28
841.404	24
842.562	30
843.72	29
844.88	33
846.038	28
847.195	28
848.353	31
849.512	31
850.669	30
851.826	30
852.983	30
854.139	29
855.296	32
856.453	29
857.609	33
858.765	33
859.921	33
861.077	32
862.232	26
863.387	33
864.542	28
865.697	33
866.852	34
868.008	28
869.162	28
870.316	32
871.47	29
872.624	27
873.778	31
874.931	34
876.084	24
877.237	35
878.39	30
879.543	30
880.695	30
881.846	35
882.999	26
884.151	24
885.302	26
886.454	31
887.606	26
888.757	32
889.908	24
891.059	28
892.21	26
893.359	32
894.509	25
895.659	28
896.81	28
897.959	38
899.109	29
900.257	34
901.407	28
902.556	32
903.705	29
904.854	32
906.001	26
907.149	24
908.298	30
909.446	34
910.592	26
911.74	24
912.888	32
914.034	33
915.181	27
916.328	33
917.473	29
918.62	24
919.766	26
920.911	31
922.058	24
923.204	35
924.348	33
925.494	26
926.638	29
927.783	26
928.928	28
930.072	27
931.216	34
932.36	28
933.504	27
934.647	28
935.791	26
936.933	24
938.077	27
939.219	34
940.363	30
941.504	32
942.647	28
943.789	27
944.932	31
946.073	28
947.215	24
948.356	26
949.498	30
950.638	31
951.778	25
952.92	28
954.06	28
955.199	29
956.34	28
957.479	26
958.62	28
959.759	27
960.898	29
962.038	30
963.176	26
964.315	33
965.453	28
966.592	30
967.73	28
968.867	31
970.006	30
971.144	29.5
972.281	29
973.418	30
974.554	31
975.692	32
976.829	28
977.965	29
979.101	31
980.237	28
981.374	30
982.509	32
983.645	29
984.78	31
985.915	28
987.05	28
988.184	35
989.319	28
990.453	33
991.589	29
992.722	28
993.856	32
994.99	26
996.123	30
997.257	29
998.39	25
999.523	28
1000.66	29
1001.79	30
1002.92	28
1004.05	29
1005.18	26
1006.32	28
1007.45	26
1008.58	31
1009.71	28
1010.84	28
1011.97	27
1013.1	22
1014.23	30
1015.36	24
1016.49	29
1017.62	28
1018.75	28
1019.88	25
1021.01	29
1022.14	28
1023.27	22
1024.4	28
1025.53	28
1026.66	24
1027.79	28
1028.91	25
1030.04	32
1031.17	18
1032.3	32
1033.42	27
1034.55	29
1035.68	30
1036.81	32
1037.93	26
1039.06	27
1040.18	29
1041.31	30
1042.44	29
1043.56	24
1044.69	25
1045.81	30
1046.94	29
1048.06	30
1049.19	26
1050.31	24
1051.44	27
1052.56	30
1053.69	30
1054.81	30
1055.93	28
1057.06	28
1058.18	27
1059.3	26
1060.43	28
1061.55	29
1062.67	28
1063.79	28
1064.92	26
1066.04	27
1067.16	26
1068.28	28
1069.4	26
1070.52	30
1071.65	22
1072.77	26
1073.89	29
1075.01	26
1076.13	24
1077.25	27
1078.37	32
1079.49	28
1080.61	20
1081.73	27
1082.85	28
1083.97	20
1085.09	26
1086.2	20
1087.32	22
1088.44	31
1089.56	26
1090.68	28
1091.8	25
1092.91	26
1094.03	26
1095.15	29
1096.26	31
1097.38	31
1098.5	28
1099.61	28
1100.73	32
1101.85	29
1102.96	34
1104.08	27
1105.19	30
1106.31	28
1107.43	30
1108.54	28
1109.66	24
1110.77	26
1111.88	29
1113	29
1114.11	31
1115.23	28
1116.34	26
1117.46	28
1118.57	26
1119.68	30
1120.8	28
1121.91	28
1123.02	32
1124.13	27
1125.25	28
1126.36	30
1127.47	26
1128.58	28
1129.69	26
1130.8	30
1131.92	26
1133.03	26
1134.14	30
1135.25	26
1136.36	35
1137.47	31
1138.58	26
1139.69	27
1140.8	21
1141.91	27
1143.02	26
1144.13	24
1145.24	29
1146.35	28
1147.46	28
1148.56	29
1149.67	34
1150.78	30
1151.89	28
1153	28
1154.1	22
1155.21	25
1156.32	32
1157.43	36
1158.53	29
1159.64	26
1160.75	24
1161.85	27
1162.96	26
1164.07	29
1165.17	32
1166.28	28
1167.38	30
1168.49	28
1169.59	27
1170.7	31
1171.8	31
1172.91	27
1174.01	31
1175.12	25
1176.22	26
1177.32	24
1178.43	24
1179.53	27
1180.64	24
1181.74	29
1182.84	26
1183.94	24
1185.05	25
1186.15	28
1187.25	30
1188.35	27
1189.46	26
1190.56	26
1191.66	27
1192.76	24
1193.86	24
1194.96	26
1196.06	27.0098
1197.16	29.9438
1198.26	28.9597
1199.37	30.0381
1200.47	27.9581
1201.57	27.848
1202.67	27
1203.77	24.2206
1204.86	27.0443
1205.96	29.6174
1207.06	30.4406
1208.16	27.5958
1209.26	24.0685
1210.36	27.9348
1211.46	29.3582
1212.56	26.1498
1213.65	28.9248
1214.75	26.1673
1215.85	26.3627
1216.95	27.0079
1218.04	26.3812
1219.14	30.394
1220.24	24.7483
1221.33	30.568
1222.43	21.1356
1223.53	28.8626
1224.62	26.7099
1225.72	23.6983
1226.82	25.4412
1227.91	26.6311
1229.01	29.593
1230.1	25.8131
1231.2	25.2563
1232.29	27.8797
1233.39	24.4757
1234.48	27.8631
1235.58	31.0002
1236.67	27.7116
1237.77	23.3635
1238.86	25.761
1239.95	27.356
1241.05	25.6763
1242.14	26.8986
1243.23	25.4185
1244.33	28.0072
1245.42	26.2617
1246.51	23.7065
1247.61	26.9166
1248.7	26.8883
1249.79	27.7059
1250.88	28.6578
1251.97	27.0294
1253.07	27.4168
1254.16	27.8662
1255.25	28.7376
1256.34	26.7164
1257.43	25.8428
1258.52	27.8872
1259.61	29.4451
1260.7	27.1693
1261.79	29.172
1262.88	31.6029
1263.97	28.6252
1265.06	27.3371
1266.15	26.4582
1267.24	26.1525
1268.33	25.3922
1269.42	27.0193
1270.51	27.8296
1271.6	29.2375
1272.68	26.4993
1273.77	28.6011
1274.86	26.9188
1275.95	29.4703
1277.04	25.1624
1278.12	29.0793
1279.21	25.6042
1280.3	27.9724
1281.39	25.4818
1282.47	30.683
1283.56	26.2882
1284.65	28.1627
1285.73	29.5996
1286.82	24.2732
1287.91	27.3062
1288.99	28.2932
1290.08	28.848
1291.16	29.2843
1292.25	28.6029
1293.33	28.2723
1294.42	25.9947
1295.5	25.32
1296.59	25.6483
1297.67	22.6478
1298.76	27.7905
1299.84	25.9265
1300.92	24.9161
1302.01	28.2524
1303.09	21.9024
1304.17	29.8775
1305.26	29.4385
1306.34	24.0098
1307.34	24
1308.43	24
1309.52	25
1310.61	28
1311.7	28
1312.78	27
1313.87	27
1314.96	28
1316.04	28
1317.13	26
1318.22	24
1319.3	28
1320.39	27
1321.48	25
1322.56	29
1323.65	25
1324.73	25
1325.82	25
1326.9	22
1327.99	27
1329.07	26
1330.16	26
1331.24	23
1332.33	26
1333.41	28
1334.5	26
1335.58	30
1336.66	28
1337.75	26
1338.83	32
1339.91	26
1341	28
1342.08	24
1343.16	28
1344.24	26
1345.33	24
1346.41	26
1347.49	27
1348.57	29
1349.65	24
1350.74	25
1351.82	27
1352.9	24
1353.98	29
1355.06	26
1356.14	22
1357.22	27
1358.3	26
1359.38	26
1360.46	28
1361.54	26
1362.62	30
1363.7	26
1364.78	26
1365.86	26
1366.94	30
1368.02	30
1369.09	25
1370.17	30
1371.25	28
1372.33	29
1373.41	24
1374.48	29
1375.56	29
1376.64	26
1377.72	23
1378.79	24
1379.87	28
1380.95	25
1382.02	30
1383.1	27
1384.17	31
1385.25	28
1386.33	31
1387.4	29
1388.48	24
1389.55	27
1390.63	27
1391.7	32
1392.78	29
1393.85	30
1394.93	24
1396	25
1397.07	34
1398.15	27
1399.22	34
1400.3	31
1401.37	27
1402.44	31
1403.52	31
1404.59	36
1405.66	33
1406.73	34
1407.81	30
1408.88	32
1409.95	33
1411.02	29
1412.09	31
1413.17	31
1414.24	30
1415.31	28
1416.38	38
1417.45	33
1418.52	30
1419.59	29
1420.66	32
1421.73	32
1422.8	33
1423.87	28
1424.94	32
1426.01	26
1427.08	33
1428.15	26
1429.22	28
1430.29	28
1431.35	29
1432.42	32
1433.49	25
1434.56	32
1435.63	30
1436.69	24
1437.76	29
1438.83	26
1439.9	30
1440.96	30
1442.03	33
1443.1	29
1444.17	30
1445.23	32
1446.3	32
1447.36	30
1448.43	26
1449.49	26
1450.56	28
1451.63	27
1452.69	26
1453.76	30
1454.82	28
1455.89	26
1456.95	30
1458.01	30
1459.08	29
1460.14	27
1461.21	30
1462.27	24
1463.34	20
1464.4	26
1465.46	26
1466.52	30
1467.59	30
1468.65	33
1469.71	28
1470.77	26
1471.84	26
1472.9	27
1473.96	29
1475.02	23
1476.08	32
1477.15	25
1478.21	34
1479.27	29
1480.33	28
1481.39	27
1482.45	30
1483.51	30
1484.57	32
1485.63	28
1486.69	28
1487.75	29
1488.81	24
1489.87	26
1490.93	31
1491.99	31
1493.05	26
1494.1	24
1495.16	29
1496.22	30
1497.28	30
1498.34	27
1499.4	30
1500.45	28
1501.51	26
1502.57	34
1503.63	30
1504.68	26
1505.74	26
1506.8	28
1507.85	28
1508.91	31
1509.97	29
1511.02	32
1512.08	24
1513.13	32
1514.19	28
1515.24	29
1516.3	29
1517.35	31
1518.41	25
1519.46	34
1520.52	30
1521.57	22
1522.63	28
1523.68	26
1524.73	28
1525.79	20
1526.84	26
1527.9	26
1528.95	25
1530	20
1531.05	27
1532.11	22
1533.16	24
1534.21	30
1535.26	30
1536.32	25
1537.37	32
1538.42	28
1539.47	28
1540.52	24
1541.57	34
1542.63	33
1543.68	30
1544.73	22
1545.78	28
1546.83	30
1547.88	32
1548.93	28
1549.98	28
1551.03	27
1552.08	22
1553.13	26
1554.18	29
1555.23	26
1556.27	28
1557.32	26
1558.37	24
1559.42	28
1560.47	30
1561.52	24
1562.56	26
1563.61	29
1564.66	24
1565.71	26
1566.75	26
1567.8	24
1568.85	30
1569.9	26
1570.94	30
1571.99	24
1573.03	26
1574.08	36
1575.13	30
1576.17	28
1577.22	33
1578.26	26
1579.31	24
1580.35	26
1581.4	28
1582.44	30
1583.49	31
1584.53	28
1585.58	26
1586.62	31
1587.66	27
1588.71	26
1589.75	28
1590.8	31
1591.84	26
1592.88	26
1593.92	28
1594.97	24
1596.01	29
1597.05	26
1598.1	26
1599.14	28
1600.18	29
1601.22	27
1602.26	28
1603.3	24
1604.35	30
1605.39	30
1606.43	29
1607.47	24
1608.51	33
1609.55	31
1610.59	24
1611.63	29
1612.67	26
1613.71	28
1614.75	32
1615.79	23
1616.83	26
1617.87	26
1618.91	27
1619.95	27
1620.99	27
1622.02	28
1623.06	26
1624.1	26
1625.14	27
1626.18	26
1627.21	27
1628.25	27
1629.29	26
1630.33	26
1631.36	25
1632.4	31
1633.44	26
1634.48	28
1635.51	26
1636.55	27
1637.58	26
1638.62	25
1639.66	30
1640.69	30
1641.73	27
1642.76	27
1643.8	22
1644.83	26
1645.87	30
1646.9	23
1647.94	30
1648.97	33
1650	29
1651.04	30
1652.07	29
1653.11	30
1654.14	29
1655.17	28
1656.21	30
1657.24	32
1658.27	28
1659.31	30
1660.34	31
1661.37	24
1662.4	26
1663.43	28
1664.47	26
1665.5	34
1666.53	20
1667.56	30
1668.59	30
1669.62	26
1670.66	27
1671.69	27
1672.72	28
1673.75	25
1674.78	22
1675.81	30
1676.84	28
1677.87	30
1678.9	28
1679.93	27
1680.96	31
1681.98	27
1683.01	31
1684.04	29
1685.07	30
1686.1	26
1687.13	29
1688.16	26
1689.18	26
1690.21	24
1691.24	25
1692.27	26
1693.3	22
1694.32	27
1695.35	34
1696.38	32
1697.4	28
1698.43	28
1699.46	28
1700.48	26
1701.51	24
1702.54	27
1703.56	29
1704.59	27
1705.61	28
1706.64	31
1707.66	30
1708.69	32
1709.71	27
1710.74	27
1711.76	30
1712.79	29
1713.81	26
1714.83	27
1715.86	26
1716.88	28
1717.91	30
1718.93	28
1719.95	27
1720.98	32
1722	26
1723.02	26
1724.04	26
1725.07	30
1726.09	26
1727.11	33
1728.13	29
1729.15	28
1730.18	31
1731.2	28
1732.22	34
1733.24	29
1734.26	24
1735.28	28
1736.3	27
1737.32	28
1738.34	20
1739.36	26
1740.38	30
1741.4	28
1742.42	30
1743.44	29
1744.46	28
1745.48	24
1746.5	20
1747.52	30
1748.54	32
1749.56	25
1750.58	29
1751.6	22
1752.61	26
1753.63	26
1754.65	28
1755.67	28
1756.68	28
1757.7	24
1758.72	27
1759.74	27
1760.75	32
1761.77	20
1762.79	32
1763.8	24
1764.82	27
1765.83	30
1766.85	26
1767.87	28
1768.88	28
1769.9	24
1770.91	31
1771.93	33
1772.94	27
1773.96	26
1774.97	28
1775.99	23
1777	28
1778.02	31
1779.03	26
1780.04	21
1781.06	30
1782.07	20
1783.09	30
1784.1	24
1785.11	30
1786.13	29
1787.14	28
1788.15	31
1789.16	33
1790.18	25
1791.19	32
1792.2	29
1793.21	22
1794.22	24
1795.23	29
1796.25	35
1797.26	26
1798.27	28
1799.28	24
1800.29	27
1801.3	26
1802.31	27
1803.32	22
1804.33	29
1805.34	20
1806.35	30
1807.36	29
1808.37	30
1809.38	26
1810.39	29
1811.4	25
1812.41	28
1813.42	34
1814.42	24
1815.43	32
1816.44	33
1817.45	27
1818.46	29
1819.47	28
1820.47	28
1821.48	26
1822.49	32
1823.49	28
1824.5	26
1825.51	26
1826.52	24
1827.52	29
1828.53	24
1829.53	24
1830.54	27
1831.55	24
1832.55	29
1833.56	29
1834.56	26
1835.57	25
1836.57	18
1837.58	28
1838.58	29
1839.59	30
1840.59	22
1841.6	26
1842.6	24
1843.61	26
1844.61	25
1845.61	30
1846.62	29
1847.62	24
1848.62	24
1849.63	30
1850.63	26
1851.63	27
1852.64	33
1853.64	30
1854.64	26
1855.64	31
1856.64	30
1857.65	28
1858.65	24
1859.65	24
1860.65	25
1861.65	26
1862.65	30
1863.65	29
1864.66	27
1865.66	30
1866.66	30
1867.66	30
1868.66	28
1869.66	26
1870.66	34
1871.66	24
1872.66	29
1873.66	24
1874.66	22
1875.65	29
1876.65	30
1877.65	29
1878.65	24
1879.65	26
1880.65	26
1881.65	28
1882.64	29
1883.64	22
1884.64	29
1885.64	26
1886.63	28
1887.63	31
1888.63	33
1889.63	30
1890.62	25
1891.62	32
1892.62	28
1893.61	29
1894.61	26
1895.6	26
1896.6	25
1897.6	26
1898.59	24
1899.59	26
1900.58	28
1901.58	27
1902.57	28
1903.57	22
1904.56	30
1905.56	26
1906.55	26
1907.54	24
1908.54	31
1909.53	27
1910.53	28
1911.52	24
1912.51	30
1913.51	30
1914.5	30
1915.49	24
1916.49	30
1917.48	26
1918.47	28
1919.46	28
1920.46	29
1921.45	25
1922.44	30
1923.43	26
1924.42	22
1925.41	24
1926.41	26
1927.4	27
1928.39	26
1929.38	28
1930.37	23
1931.36	26
1932.35	31
1933.34	30
1934.33	30
1935.32	28
1936.31	26
1937.3	27
1938.29	35
1939.28	29
1940.27	30
1941.26	26
1942.24	26
1943.23	31
1944.22	27
1945.21	29
1946.2	26
1947.19	24
1948.17	29
1949.16	26
1950.15	28
1951.14	30
1952.12	26
1953.11	26
1954.1	25
1955.09	24
1956.07	22
1957.06	28
1958.05	27
1959.03	31
1960.02	27
1961	27
1961.99	27
1962.98	31
1963.96	28
1964.95	26
1965.93	24
1966.92	26
1967.9	26
1968.89	28
1969.87	30
1970.85	30
1971.84	26
1972.82	25
1973.81	22
1974.79	28
1975.78	26
1976.76	28
1977.74	26
1978.73	24
1979.71	32
1980.69	28
1981.67	27
1982.66	29
1983.64	27
1984.62	24
1985.6	21
1986.59	26
1987.57	28
1988.55	26
1989.53	29
1990.51	22
1991.49	28
1992.47	28
1993.45	26
1994.44	26
1995.42	28
1996.4	26
1997.38	30
1998.36	27
1999.34	29
2000.32	29
2001.3	22
2002.28	27
2003.26	24
2004.24	24
2005.22	26
2006.19	28
2007.17	24
2008.15	28
2009.13	27
2010.11	29
2011.09	24
2012.06	28
2013.04	28
2014.02	25
2015	30
2015.98	26
2016.95	25
2017.93	23
2018.91	22
2019.88	28
2020.86	25
2021.84	27
2022.81	18
2023.79	20
2024.77	28
2025.74	29
2026.72	18
2027.69	27
2028.67	28
2029.65	27
2030.62	28
2031.6	31
2032.57	28
2033.55	25
2034.52	24
2035.5	24
2036.47	22
2037.44	24
2038.42	30
2039.39	26
2040.36	30
2041.34	25
2042.31	26
2043.29	26
2044.26	26
2045.23	24
2046.2	30
2047.18	26
2048.15	23
2049.12	30
2050.09	28
2051.07	28
2052.04	25
2053.01	26
2053.98	23
2054.95	28
2055.93	29
2056.9	28
2057.87	24
2058.84	26
2059.81	31
2060.78	26
2061.75	30
2062.72	26
2063.69	28
2064.66	24
2065.63	28
2066.6	26
2067.57	24
2068.54	32
2069.51	22
2070.48	26
2071.45	26
2072.42	25
2073.38	30
2074.35	29
2075.32	26
2076.29	30
2077.26	30
2078.23	28
2079.19	25
2080.16	23
2081.13	29
2082.1	22
2083.06	22
2084.03	24
2085	24
2085.96	29
2086.93	22
2087.9	24
2088.86	29
2089.83	26
2090.8	27
2091.76	26
2092.73	26
2093.69	24
2094.66	28
2095.62	28
2096.59	26
2097.55	26
2098.52	27
2099.48	22
2100.45	29
2101.41	26
2102.38	29
2103.34	23
2104.31	26
2105.27	25
2106.23	28
2107.2	24
2108.16	26
2109.12	23
2110.09	24
2111.05	27
2112.01	21
2112.98	24
2113.94	26
2114.9	24
2115.86	22
2116.82	24
2117.79	25
2118.75	27
2119.71	26
2120.67	24
2121.63	26
2122.59	26
2123.55	26
2124.52	27
2125.48	25
2126.44	28
2127.4	26
2128.36	26
2129.32	24
2130.28	24
2131.24	21
2132.2	26
2133.16	27
2134.12	22
2135.08	27
2136.04	20
2136.99	28
2137.95	25
2138.91	26
2139.87	18
2140.83	26
2141.79	20
2142.75	26
2143.7	26
2144.66	29
2145.62	31.9529
2146.58	24.0227
2147.53	23.9265
2148.49	24.8768
2149.45	30.7659
2150.41	23.896
2151.36	25.813
2152.32	29.5544
2153.27	23.0093
2154.23	26.8186
2155.19	24.2249
2156.14	27.3196
2157.1	26.873
2158.06	22.393
2159.01	24.843
2159.97	23.4213
2160.92	27.3136
2161.88	23.3395
2162.83	27.0942
2163.79	25.6176
2164.74	26.7971
2165.7	28.7852
2166.65	26.0063
2167.61	27.8573
2168.56	21.7206
2169.51	25.9852
2170.47	26.2384
2171.42	26.9675
2172.38	28.8949
2173.33	26.3222
2174.28	24.2384
2175.24	26.2893
2176.19	22.3601
2177.14	25.5651
2178.09	24.979
2179.05	25.4308
2180	25.6722
2180.95	21.5041
2181.9	24.18
2182.86	26.3364
2183.81	24.6687
2184.76	22.9033
2185.71	24
2186.66	24.5514
2187.61	28.8734
2188.57	24.4498
2189.52	22.4871
2190.47	23.3332
2191.42	25.6716
2192.37	27.2501
2193.32	23.6498
2194.27	26.7544
2195.22	24.2012
2196.17	24.172
2197.12	26.0076
2198.07	24.5395
2199.02	24.9282
2199.97	27.6738
2200.92	25.3063
2201.87	23.5347
2202.82	23.8137
2203.76	24.3461
2204.71	23.5642
2205.66	26.1979
2206.61	23.1859
2207.56	26.6824
2208.51	25.7631
2209.45	27.6765
2210.4	24.5007
2211.35	26.1613
2212.3	24.9438
2213.24	23.9394
2214.19	25.1734
2215.14	26.1987
2216.09	21.7516
2217.03	22.2895
2217.98	21.25
2218.93	25.8305
2219.87	29.2334
2220.82	26.0324
2221.77	26.3535
2222.71	26.5049
2223.66	26.3824
2224.6	23.2509
2225.55	25.451
2226.49	25.7978
2227.44	24.5801
2228.38	26.664
2229.33	24.0756
2230.27	24.2583
2231.22	26.3212
2232.16	22.8396
2233.11	22.8915
2234.05	21.7219
2235	25.0023
2235.94	24.3106
2236.88	23.8815
2237.83	26.1029
2238.77	24.0252
2239.71	22.0735
2240.66	24.3629
2241.6	22.5505
2242	20
2242.95	22
2243.9	22
2244.84	24
2245.79	22
2246.74	24
2247.69	18
2248.63	27
2249.58	27
2250.53	25
2251.47	26
2252.42	27
2253.37	25
2254.31	27
2255.26	22
2256.2	24
2257.15	27
2258.1	24
2259.04	26
2259.99	30
2260.93	24
2261.88	26
2262.82	24
2263.77	22
2264.71	32
2265.65	24
2266.6	29
2267.54	24
2268.49	30
2269.43	24
2270.38	26
2271.32	29
2272.26	28
2273.21	24
2274.15	24
2275.09	26
2276.04	28
2276.98	30
2277.92	26
2278.86	26
2279.81	26
2280.75	24
2281.69	24
2282.63	25
2283.57	29
2284.52	22
2285.46	27
2286.4	26
2287.34	22
2288.28	28
2289.22	27
2290.16	22
2291.1	30
2292.04	28
2292.98	26
2293.93	24
2294.86	24
2295.8	26
2296.74	26
2297.69	30
2298.62	27
2299.56	27
2300.5	25
2301.44	31
2302.38	21
2303.32	28
2304.26	20
2305.2	27
2306.14	27
2307.07	26
2308.01	31
2308.95	32
2309.89	24
2310.83	29
2311.76	24
2312.7	26
2313.64	27
2314.58	29
2315.51	25
2316.45	30
2317.39	22
2318.32	32
2319.26	25
2320.2	27
2321.13	26
2322.07	24
2323	26
2323.94	26
2324.88	23
2325.81	22
2326.75	27
2327.68	26
2328.62	30
2329.55	25
2330.49	25
2331.42	22
2332.36	31
2333.29	26
2334.22	26
2335.16	28
2336.09	24
2337.03	27
2337.96	28
2338.89	22
2339.83	28
2340.76	26
2341.69	26
2342.63	24
2343.56	29
2344.49	28
2345.43	26
2346.36	29
2347.29	26
2348.22	23
2349.15	23
2350.09	28
2351.02	26
2351.95	22
2352.88	26
2353.81	28
2354.74	27
2355.67	28
2356.61	32
2357.54	27
2358.47	26
2359.4	24
2360.33	24
2361.26	26
2362.19	26
2363.12	24
2364.05	27
2364.98	27
2365.91	24
2366.84	27
2367.77	30
2368.7	26
2369.62	27
2370.55	29
2371.48	27
2372.41	26
2373.34	22
2374.27	22
2375.2	26
2376.12	28
2377.05	29
2377.98	25
2378.91	22
2379.83	23
2380.76	28
2381.69	28
2382.62	24
2383.54	25
2384.47	26
2385.4	29
2386.32	28
2387.25	24
2388.18	24
2389.1	24
2390.03	26
2390.95	28
2391.88	26
2392.81	26
2393.73	28
2394.66	22
2395.58	26
2396.51	31
2397.43	30
2398.36	28
2399.28	24
2400.2	24
2401.13	26
2402.05	29
2402.98	20
2403.9	32
2404.83	28
2405.75	30
2406.67	28
2407.6	22
2408.52	22
2409.44	28
2410.37	24
2411.29	26
2412.21	25
2413.13	30
2414.06	30
2414.98	26
2415.9	26
2416.82	24
2417.74	26
2418.67	22
2419.59	23
2420.51	29
2421.43	26
2422.35	30
2423.27	26
2424.19	25
2425.11	29
2426.03	25
2426.96	28
2427.88	27
2428.8	25
2429.72	23
2430.64	30
2431.56	30
2432.48	24
2433.39	26
2434.31	22
2435.23	24
2436.15	26
2437.07	21
2437.99	18
2438.91	26
2439.83	28
2440.75	28
2441.67	22
2442.58	25
2443.5	31
2444.42	25
2445.34	28
2446.26	29
2447.17	27
2448.09	26
2449.01	26
2449.92	30
2450.84	26
2451.76	29
2452.68	26
2453.59	20
2454.51	30
2455.42	24
2456.34	27
2457.26	29
2458.17	27
2459.09	30
2460	28
2460.92	29
2461.83	27
2462.75	30
2463.66	26
2464.58	26
2465.49	31
2466.41	31
2467.32	24
2468.24	22
2469.15	22
2470.07	28
2470.98	32
2471.89	23
2472.81	27
2473.72	28
2474.64	29
2475.55	30
2476.46	26
2477.37	26
2478.29	22
2479.2	30
2480.11	30
2481.03	24
2481.94	25
2482.85	27
2483.76	30
2484.67	24
2485.59	22
2486.5	30
2487.41	25
2488.32	30
2489.23	28
2490.14	26
2491.05	30
2491.97	27
2492.88	24
2493.79	26
2494.7	32
2495.61	22
2496.52	26
2497.43	26
2498.34	24
2499.25	25
2500.16	23
2501.07	28
2501.98	26
2502.89	25
2503.79	30
2504.7	27
2505.61	27
2506.52	29
2507.43	23
2508.34	27
2509.25	30
2510.16	25
2511.06	27
2511.97	25
2512.88	26
2513.79	22
2514.69	22
2515.6	28
2516.51	28
2517.42	27
2518.32	28
2519.23	31
2520.14	26
2521.04	30
2521.95	24
2522.86	26
2523.76	24
2524.67	26
2525.57	28
2526.48	23
2527.39	30
2528.29	25
2529.2	22
2530.1	27
2531.01	28
2531.91	25
2532.82	25
2533.72	26
2534.63	26
2535.53	30
2536.44	29
2537.34	25
2538.24	22
2539.15	27
2540.05	22
2540.96	30
2541.86	26
2542.76	32
2543.67	22
2544.57	22
2545.47	22
2546.37	25
2547.28	28
2548.18	31
2549.08	27
2549.99	26
2550.89	29
2551.79	22
2552.69	28
2553.59	28
2554.49	24
2555.4	28
2556.3	30
2557.2	31
2558.1	24
2559	31
2559.9	25
2560.8	25
2561.7	30
2562.6	25
2563.5	28
2564.4	30
2565.3	30
2566.2	28
2567.1	28
2568	29
2568.9	28
2569.8	22
2570.7	31
2571.6	26
2572.5	27
2573.4	28
2574.3	28
2575.2	27
2576.1	28
2576.99	22
2577.89	28
2578.79	22
2579.69	28
2580.59	30
2581.48	28
2582.38	27
2583.28	27
2584.18	30
2585.07	26
2585.97	30
2586.87	25
2587.76	29
2588.66	26
2589.56	24
2590.45	26
2591.35	27
2592.25	26
2593.14	23
2594.04	28
2594.93	20
2595.83	22
2596.73	28
2597.62	24
2598.52	24
2599.41	26
2600.31	26
2601.2	29
2602.1	28
2602.99	23
2603.88	28
2604.78	30
2605.67	29
2606.57	30
2607.46	27
2608.35	31
2609.25	31
2610.14	26
2611.03	28
2611.93	25
2612.82	27
2613.71	24
2614.61	28
2615.5	22
2616.39	31
2617.29	26
2618.18	28
2619.07	30
2619.96	31
2620.85	25
2621.75	26
2622.64	26
2623.53	28
2624.42	24
2625.31	28
2626.2	26
2627.09	23
2627.98	26
2628.88	25
2629.77	26
2630.66	32
2631.55	27
2632.44	26
2633.33	20
2634.22	24
2635.11	26
2636	34
2636.89	26
2637.78	27
2638.66	25
2639.55	26
2640.44	32
2641.33	32
2642.22	27
2643.11	30
2644	29
2644.89	29
2645.78	30
2646.66	26
2647.55	28
2648.44	27
2649.33	28
2650.21	25
2651.1	27
2651.99	27
2652.88	24
2653.76	35
2654.65	26
2655.54	22
2656.42	30
2657.31	27
2658.2	22
2659.08	31
2659.97	24
2660.86	22
2661.74	27
2662.63	24
2663.51	28
2664.4	29
2665.29	29
2666.17	30
2667.06	26
2667.94	22
2668.83	26
2669.71	28
2670.6	26
2671.48	29
2672.36	24
2673.25	26
2674.13	28
2675.02	30
2675.9	24
2676.78	25
2677.67	26
2678.55	26
2679.43	29
2680.32	26
2681.2	24
2682.08	29
2682.97	22
2683.85	28
2684.73	30
2685.61	28
2686.5	26
2687.38	30
2688.26	29
2689.14	29
2690.03	27
2690.91	24
2691.79	25
2692.67	29
2693.55	28
2694.43	30
2695.31	28
2696.19	28
2697.08	27
2697.96	26
2698.84	28
2699.72	26
2700.6	24
2701.48	27
2702.36	28
2703.24	28
2704.12	22
2705	26
2705.88	31
2706.76	28
2707.64	26
2708.51	28
2709.39	24
2710.27	28
2711.15	30
2712.03	29
2712.91	30
2713.79	26
2714.67	27
2715.54	27
2716.42	26
2717.3	24
2718.18	27
2719.05	28
2719.93	28
2720.81	28
2721.69	27
2722.56	31
2723.44	31
2724.32	25
2725.19	22
2726.07	28
2726.95	27
2727.82	32
2728.7	25
2729.58	26
2730.45	32
2731.33	26
2732.2	28
2733.08	29
2733.95	24
2734.83	26
2735.7	30
2736.58	26
2737.45	27
2738.33	26
2739.2	30
2740.08	30
2740.95	27
2741.83	26
2742.7	34
2743.58	22
2744.45	26
2745.32	22
2746.2	33
2747.07	30
2747.94	29
2748.82	26
2749.69	31
2750.56	28
2751.44	26
2752.31	24
2753.18	26
2754.05	28
2754.93	26
2755.8	26
2756.67	27
2757.54	24
2758.42	29
2759.29	26
2760.16	28
2761.03	26
2761.9	24
2762.77	26
2763.64	26
2764.51	28
2765.38	30
2766.26	28
2767.13	26
2768	34
2768.87	27
2769.74	24
2770.61	29
2771.48	28
2772.35	28
2773.22	28
2774.09	30
2774.96	30
2775.83	27
2776.7	28
2777.56	28
2778.43	27
2779.3	24
2780.17	27
2781.04	25
2781.91	23
2782.78	26
2783.64	31
2784.51	29
2785.38	31
2786.25	29
2787.12	27
2787.98	31
2788.85	24
2789.72	29
2790.59	25
2791.45	35
2792.32	27
2793.19	28
2794.05	30
2794.92	28
2795.79	30
2796.65	28
2797.52	28
2798.38	33
2799.25	32
2800.12	29
2800.98	25
2801.85	32
2802.71	31
2803.58	31
2804.44	26
2805.31	32
2806.17	32
2807.04	34
2807.9	26
2808.77	26
2809.63	26
2810.5	28
2811.36	26
2812.22	36
2813.09	30
2813.95	36
2814.82	26
2815.68	20
2816.54	28
2817.41	28
2818.27	26
2819.13	27
2820	34
2820.86	32
2821.72	30
2822.58	26
2823.45	28
2824.31	24
2825.17	26
2826.03	28
2826.9	27
2827.76	30
2828.62	34
2829.48	30
2830.34	33
2831.2	22
2832.06	32
2832.92	29
2833.79	29
2834.65	26
2835.51	26
2836.37	27
2837.23	28
2838.09	32
2838.95	29
2839.81	26
2840.67	30
2841.53	30
2842.39	25
2843.25	24
2844.11	30
2844.97	30
2845.83	33
2846.68	31
2847.54	26
2848.4	27
2849.26	24
2850.12	24
2850.98	26
2851.84	28
2852.69	30
2853.55	26
2854.41	24
2855.27	30
2856.13	26
2856.98	28
2857.84	22
2858.7	29
2859.56	27
2860.41	28
2861.27	26
2862.13	32
2862.98	30
2863.84	28
2864.7	30
2865.55	28
2866.41	26
2867.27	30
2868.12	28
2868.98	28
2869.83	30
2870.69	28
2871.54	30
2872.4	31
2873.25	25
2874.11	30
2874.96	30
2875.82	30
2876.68	34
2877.53	28
2878.38	31
2879.24	33
2880.09	32
2880.95	35
2881.8	34
2882.65	36
2883.51	34
2884.36	34
2885.22	28
2886.07	30
2886.92	42
2887.77	35
2888.63	41
2889.48	37
2890.33	38
2891.19	36
2892.04	39
2892.89	32
2893.74	42
2894.6	44
2895.45	44
2896.3	43
2897.15	44
2898	50
2898.85	50
2899.71	50
2900.56	52
2901.41	56
2902.26	55
2903.11	61
2903.96	60
2904.81	65
2905.66	65
2906.51	69
2907.36	62
2908.21	61
2909.06	61
2909.91	62
2910.76	53
2911.61	55
2912.46	54
2913.31	48
2914.16	49
2915.01	47
2915.86	44
2916.71	44
2917.56	41
2918.41	44
2919.26	36
2920.1	37
2920.95	41
2921.8	30
2922.65	37
2923.5	31
2924.34	32
2925.19	38
2926.04	33
2926.89	35
2927.74	32
2928.58	32
2929.43	31
2930.28	34
2931.12	35
2931.97	30
2932.82	24
2933.66	37
2934.51	31
2935.36	26
2936.2	34
2937.05	31
2937.89	30
2938.74	26
2939.59	24
2940.43	32
2941.28	31
2942.12	29
2942.97	27
2943.81	31
2944.66	27
2945.5	33
2946.35	30
2947.19	25
2948.04	31
2948.88	32
2949.72	31
2950.57	26
2951.41	28
2952.26	32
2953.1	30
2953.94	35
2954.79	31
2955.63	35
2956.47	28
2957.32	34
2958.16	32
2959	34
2959.85	39
2960.69	34
2961.53	38
2962.37	42
2963.22	44
2964.06	44
2964.9	40
2965.74	46
2966.58	46
2967.42	44
2968.27	40
2969.11	36
2969.95	41
2970.79	42
2971.63	36
2972.47	36
2973.31	38
2974.15	39
2974.99	33
2975.83	33
2976.68	32
2977.52	39
2978.36	31
2979.2	32
2980.04	31
2980.88	31
2981.71	28
2982.55	29
2983.39	26
2984.23	28
2985.07	26
2985.91	28
2986.75	26
2987.59	26
2988.43	28
2989.27	27
2990.1	33
2990.94	31
2991.78	26
2992.62	30
2993.46	28
2994.3	24
2995.13	27
2995.97	32
2996.81	32
2997.64	24
2998.48	28
2999.32	24
