#Acq. time (s)=	3
#Accumulations=	3
#Range (cm-¹)=	100...3000
#Windows=	3
#Autofocus=	Off
#AutoExposure=	Off
#Spike filter=	Multiple accum.
#Delay time (s)=	0
#Binning=	1
#Readout mode=	Signal
#DeNoise=	Off
#ICS correction=	Off
#Dark correction=	Off
#Inst. Process=	Off
#Instrument=	LabRAM HR Evol
#Detector=	Syncerity OE
#Objective=	x100_VIS_LWD
#Grating=	600 (500nm)
#ND Filter=	25%
#Laser=	633nm_Edge
#Hole=	100.021
#Range=	Visible
#Project=	Bolus
#Sample=	B2
#Site=	stripside
#Title=	m08
#Remark=	
#Date=	03.11.2025 17:52
#Acquired=	03.11.2025 17:52:11
100.969	27
102.252	30
103.535	36
104.818	39
106.101	30
107.384	30
108.666	34
109.948	32
111.232	33
112.514	30
113.795	32
115.077	28
116.358	34
117.639	36
118.919	36
120.2	35
121.48	33
122.76	37
124.04	42
125.32	31
126.599	34
127.879	35
129.158	32
130.436	33
131.715	35
132.992	37
134.27	33
135.548	40
136.826	34
138.104	33
139.381	36
140.658	35
141.935	36
143.212	39
144.489	32
145.763	40
147.04	41
148.315	38
149.591	40
150.867	34
152.142	38
153.416	44
154.691	41
155.965	36
157.24	38
158.514	48
159.786	34
161.06	41
162.334	42
163.607	42
164.881	44
166.152	44
167.425	41
168.698	44
169.969	44
171.241	38
172.513	36
173.785	38
175.055	40
176.326	43
177.597	38
178.867	40
180.137	38
181.408	36
182.677	40
183.947	41
185.217	41
186.485	37
187.755	41
189.022	38
190.291	38
191.56	40
192.828	38
194.096	40
195.363	44
196.631	44
197.899	44
199.165	42
200.432	38
201.698	42
202.965	40
204.23	40
205.497	40
206.762	39
208.028	34
209.293	39
210.559	37
211.823	37
213.088	38
214.352	36
215.617	34
216.88	34
218.145	38
219.408	40
220.672	34
221.934	37
223.196	38
224.46	30
225.722	34
226.985	37
228.246	38
229.508	28
230.77	32
232.031	34
233.292	36
234.554	27
235.814	39
237.074	30
238.335	33
239.595	31
240.854	26
242.115	33
243.374	30
244.633	32
245.893	33
247.151	36
248.409	31
249.667	32
250.927	34
252.184	30
253.442	32
254.699	28
255.957	26
257.214	34
258.47	30
259.727	30
260.983	38
262.24	34
263.496	38
264.752	36
266.007	30
267.262	32
268.517	26
269.773	30
271.028	35
272.282	24
273.536	31
274.79	26
276.044	29
277.297	32
278.551	31
279.804	28
281.057	30
282.31	35
283.564	29
284.816	38
286.068	26
287.32	32
288.572	30
289.823	30
291.074	29
292.325	28
293.576	36
294.827	32
296.077	32
297.328	34
298.578	29
299.828	33
301.077	30
302.325	30
303.575	34
304.824	32
306.073	28
307.321	28
308.57	32
309.818	31
311.066	34
312.314	28
313.562	30
314.808	33
316.055	37
317.302	29
318.549	30
319.796	31
321.042	33
322.288	36
323.533	33
324.779	32
326.024	33
327.27	31
328.515	35
329.759	32
331.004	30
332.248	34
333.493	32
334.736	36
335.98	30
337.223	30
338.466	32
339.709	30
340.952	34
342.195	35
343.437	28
344.68	32
345.922	30
347.163	30
348.405	33
349.647	30
350.887	37
352.128	34
353.37	33
354.609	38
355.85	33
357.089	30
358.33	29
359.57	31
360.809	36
362.049	38
363.287	30
364.526	34
365.764	31
367.003	32
368.241	33
369.479	37
370.718	30
371.955	36
373.193	33
374.429	32
375.667	29
376.903	26
378.139	32
379.376	26
380.611	34
381.848	34
383.083	28
384.319	32
385.554	38
386.79	26
388.024	32
389.258	34
390.493	31
391.727	32
392.962	32
394.195	33
395.428	28
396.663	34
397.895	34
399.128	30
400.361	29
401.593	26
402.825	36
404.058	32
405.29	31
406.521	33
407.752	32
408.985	36
410.215	31
411.446	32
412.678	29
413.908	30
415.138	26
416.367	30
417.597	32
418.828	32
420.057	26
421.286	33
422.514	34
423.743	32
424.973	32
426.201	28
427.429	32
428.657	35
429.884	32
431.112	26
432.34	31
433.567	34
434.794	35
436.02	30
437.247	32
438.473	32
439.699	34
440.925	30
442.15	34
443.376	32
444.601	33
445.826	28
447.051	28
448.275	32
449.5	30
450.724	36
451.948	32
453.172	30
454.396	32
455.619	37
456.842	34
458.065	31
459.288	32
460.511	31
461.733	32
462.956	36
464.178	37
465.4	36
466.621	29
467.843	39
469.064	35
470.285	33
471.505	40
472.726	38
473.946	36
475.166	44
476.387	32
477.606	44
478.825	46
480.044	51
481.264	50
482.483	52
483.702	50
484.921	51
486.138	58
487.356	56
488.574	61
489.792	57
491.009	60
492.226	56
493.444	60
494.661	50
495.877	50
497.094	54
498.31	51
499.525	47
500.741	48
501.958	44
503.172	46
504.388	43
505.603	36
506.817	42
508.032	43
509.247	34
510.46	38
511.675	43
512.888	34
514.102	36
515.316	41
516.528	33
517.742	36
518.954	34
520.167	39
521.378	41
522.591	31
523.802	34
525.015	37
526.226	32
527.438	34
528.648	36
529.86	34
531.07	36
532.281	34
533.491	33
534.702	30
535.911	35
537.121	33
538.33	38
539.54	33
540.749	30
541.957	32
543.167	35
544.375	33
545.584	34
546.791	31
547.999	36
549.207	30
550.414	32
551.621	32
552.829	32
554.035	36
555.241	32
556.449	27
557.655	36
558.86	32
560.066	33
561.272	32
562.477	32
563.682	30
564.888	34
566.093	28
567.297	32
568.501	32
569.705	29
570.91	30
572.114	32
573.317	34
574.52	27
575.723	24
576.927	34
578.13	30
579.332	34
580.535	31
581.737	32
582.938	36
584.14	33
585.343	32
586.544	29
587.745	31
588.946	37
590.147	34
591.347	32
592.548	26
593.748	35
594.948	30
596.147	31
597.347	30
598.546	32
599.745	37
600.944	28
602.143	26
603.342	30
604.54	36
605.738	30
606.937	32
608.134	36
609.332	36
610.529	36
611.727	34
612.924	32
614.121	35
615.317	33
616.513	32
617.709	30
618.905	33
620.101	38
621.297	30
622.492	34
623.688	28
624.883	32
626.077	32
627.271	34
628.466	28
629.66	38
630.855	34
632.047	30
633.241	26
634.435	34
635.629	31
636.82	28
638.014	34
639.207	33
640.399	36
641.59	34
642.783	34
643.975	29
645.166	37
646.357	32
647.549	39
648.741	32
649.93	28
651.122	32
652.311	32
653.502	34
654.692	36
655.881	35
657.071	34
658.261	30
659.45	33
660.639	28
661.827	39
663.016	32
664.204	28
665.393	33
666.581	32
667.769	34
668.957	34
670.143	32
671.331	31
672.518	37
673.705	22
674.891	38
676.078	28
677.264	32
678.451	37
679.636	36
680.821	35
682.007	32
683.192	32
684.378	39
685.562	39
686.747	42
687.931	37
689.115	28
690.3	40
691.483	36
692.666	33
693.851	32
695.034	38
696.216	39
697.4	39
698.582	38
699.764	39
700.948	44
702.129	42
703.311	40
704.493	40
705.674	49
706.855	49
708.036	50
709.218	56
710.399	56
711.579	45
712.759	48
713.939	47
715.12	38
716.299	44
717.478	44
718.657	36
719.836	30
721.015	36
722.195	36
723.373	34
724.552	32
725.729	30
726.907	36
728.085	31
729.262	36
730.44	36
731.617	34
732.795	32
733.972	30
735.148	30
736.324	32
737.501	29
738.677	34
739.852	31
741.028	30
742.203	29
743.379	32
744.554	33
745.729	36
746.903	32
748.078	22
749.252	33
750.426	30
751.599	31
752.772	29
753.946	28
755.119	35
756.293	27
757.466	30
758.639	34
759.811	38
760.984	30
762.155	30
763.327	32
764.499	36
765.67	37
766.842	30
768.013	31
769.183	36
770.354	30
771.525	33
772.696	29
773.865	36
775.035	32
776.205	34
777.375	30
778.544	30
779.713	36
780.882	32
782.052	37
783.219	32
784.388	28
785.557	31
786.724	34
787.892	34
789.06	32
790.227	32
791.395	34
792.562	32
793.728	38
794.895	34
796.061	33
797.228	28
798.395	36
799.56	35
800.726	36
801.891	32
803.057	30
804.221	28
805.387	34
806.551	24
807.716	32
808.879	31
810.044	30
811.208	31
812.372	34
813.535	33
814.699	30
815.862	36
817.025	32
818.188	30
819.351	32
820.513	29
821.675	32
822.837	35
823.999	30
825.161	32
826.322	34
827.483	32
828.645	32
829.805	31
830.966	32
832.127	34
833.287	22
834.447	29
835.607	28
836.767	33
837.926	34
839.085	32
840.245	31
841.404	33
842.562	34
843.72	24
844.88	36
846.038	31
847.195	30
848.353	32
849.512	28
850.669	34
851.826	30
852.983	35
854.139	35
855.296	30
856.453	30
857.609	34
858.765	30
859.921	35
861.077	33
862.232	36
863.387	35
864.542	39
865.697	32
866.852	34
868.008	29
869.162	34
870.316	30
871.47	30
872.624	32
873.778	31
874.931	31
876.084	26
877.237	32
878.39	32
879.543	34
880.695	28
881.846	33
882.999	29
884.151	26
885.302	33
886.454	28
887.606	33
888.757	32
889.908	31
891.059	33
892.21	32
893.359	28
894.509	31
895.659	32
896.81	32
897.959	26
899.109	32
900.257	24
901.407	30
902.556	30
903.705	30
904.854	30
906.001	29
907.149	28
908.298	34
909.446	30
910.592	33
911.74	26
912.888	32
914.034	24
915.181	34
916.328	29
917.473	33
918.62	28
919.766	32
920.911	31
922.058	31
923.204	32
924.348	36
925.494	26
926.638	26
927.783	32
928.928	30
930.072	35
931.216	29
932.36	32
933.504	29
934.647	28
935.791	28
936.933	29
938.077	28
939.219	30
940.363	32
941.504	31
942.647	29
943.789	33
944.932	32
946.073	32
947.215	31
948.356	28
949.498	34
950.638	31
951.778	31
952.92	32
954.06	32
955.199	30
956.34	33
957.479	31
958.62	28
959.759	31
960.898	22
962.038	24
963.176	30
964.315	34
965.453	32
966.592	31
967.73	30
968.867	32
970.006	29
971.144	28.5
972.281	28
973.418	33
974.554	27
975.692	34
976.829	26
977.965	26
979.101	28
980.237	31
981.374	29
982.509	34
983.645	31
984.78	31
985.915	32
987.05	30
988.184	30
989.319	29
990.453	28
991.589	31
992.722	24
993.856	34
994.99	30
996.123	27
997.257	28
998.39	32
999.523	23
1000.66	31
1001.79	32
1002.92	25
1004.05	24
1005.18	31
1006.32	33
1007.45	32
1008.58	32
1009.71	35
1010.84	30
1011.97	28
1013.1	32
1014.23	30
1015.36	24
1016.49	32
1017.62	31
1018.75	26
1019.88	28
1021.01	31
1022.14	24
1023.27	33
1024.4	30
1025.53	24
1026.66	27
1027.79	32
1028.91	28
1030.04	30
1031.17	26
1032.3	32
1033.42	26
1034.55	30
1035.68	26
1036.81	31
1037.93	28
1039.06	24
1040.18	31
1041.31	32
1042.44	33
1043.56	30
1044.69	31
1045.81	27
1046.94	28
1048.06	27
1049.19	32
1050.31	27
1051.44	26
1052.56	30
1053.69	32
1054.81	30
1055.93	29
1057.06	30
1058.18	25
1059.3	32
1060.43	33
1061.55	34
1062.67	34
1063.79	27
1064.92	26
1066.04	31
1067.16	30
1068.28	28
1069.4	24
1070.52	26
1071.65	26
1072.77	33
1073.89	27
1075.01	29
1076.13	30
1077.25	28
1078.37	32
1079.49	30
1080.61	29
1081.73	29
1082.85	29
1083.97	30
1085.09	26
1086.2	27
1087.32	32
1088.44	30
1089.56	32
1090.68	32
1091.8	30
1092.91	30
1094.03	28
1095.15	29
1096.26	32
1097.38	27
1098.5	33
1099.61	30
1100.73	29
1101.85	27
1102.96	26
1104.08	32
1105.19	25
1106.31	29
1107.43	32
1108.54	31
1109.66	27
1110.77	33
1111.88	31
1113	29
1114.11	28
1115.23	32
1116.34	27
1117.46	28
1118.57	27
1119.68	27
1120.8	31
1121.91	30
1123.02	28
1124.13	31
1125.25	30
1126.36	32
1127.47	33
1128.58	30
1129.69	28
1130.8	28
1131.92	24
1133.03	26
1134.14	22
1135.25	29
1136.36	28
1137.47	31
1138.58	26
1139.69	26
1140.8	26
1141.91	31
1143.02	32
1144.13	28
1145.24	26
1146.35	30
1147.46	31
1148.56	35
1149.67	26
1150.78	31
1151.89	31
1153	28
1154.1	26
1155.21	33
1156.32	31
1157.43	32
1158.53	28
1159.64	34
1160.75	32
1161.85	29
1162.96	32
1164.07	30
1165.17	35
1166.28	32
1167.38	24
1168.49	34
1169.59	32
1170.7	27
1171.8	28
1172.91	31
1174.01	30
1175.12	28
1176.22	27
1177.32	31
1178.43	32
1179.53	27
1180.64	28
1181.74	26
1182.84	26
1183.94	27
1185.05	29
1186.15	28
1187.25	34
1188.35	28
1189.46	24
1190.56	30
1191.66	30
1192.76	29
1193.86	29
1194.96	33
1196.06	27.9902
1197.16	31.8952
1198.26	27.9568
1199.37	29.0038
1200.47	25.0264
1201.57	24.098
1202.67	26.3636
1203.77	29.2494
1204.86	25.4557
1205.96	28.8477
1207.06	29.539
1208.16	24.4587
1209.26	30.6266
1210.36	27.8697
1211.46	26.4988
1212.56	33.5441
1213.65	28.2461
1214.75	22.8621
1215.85	25.8244
1216.95	28.3191
1218.04	27.8943
1219.14	26.4216
1220.24	28.3304
1221.33	28.0445
1222.43	27.7816
1223.53	26.1126
1224.62	27
1225.72	27.4929
1226.82	27.6488
1227.91	26.9923
1229.01	28.0881
1230.1	27.3824
1231.2	28.5928
1232.29	28.0913
1233.39	25.3529
1234.48	31.9118
1235.58	30.1425
1236.67	26.8971
1237.77	26.5376
1238.86	26.5355
1239.95	27.5496
1241.05	27.2206
1242.14	26.6406
1243.23	26.5269
1244.33	24.4723
1245.42	28.6618
1246.51	25.9791
1247.61	26.7779
1248.7	27.2725
1249.79	30.5441
1250.88	28.0266
1251.97	25.1493
1253.07	28.6496
1254.16	26.9525
1255.25	30.0378
1256.34	29.5332
1257.43	29.393
1258.52	27
1259.61	33.0198
1260.7	31.0822
1261.79	28.0943
1262.88	26.9235
1263.97	26.094
1265.06	28.8929
1266.15	25.232
1267.24	27.3131
1268.33	31.6253
1269.42	27.5113
1270.51	26.1433
1271.6	28.4759
1272.68	27.4684
1273.77	27.0849
1274.86	27.3143
1275.95	27.6195
1277.04	23.0784
1278.12	25.8256
1279.21	27.8958
1280.3	27.2285
1281.39	28.2227
1282.47	23.8861
1283.56	28.4364
1284.65	26.3686
1285.73	29.8001
1286.82	30.6379
1287.91	28.8728
1288.99	28.9403
1290.08	28.6104
1291.16	26.4106
1292.25	26.3991
1293.33	22.3133
1294.42	25.8819
1295.5	25.7318
1296.59	26.6158
1297.67	24.9812
1298.76	29.728
1299.84	26
1300.92	26.0539
1302.01	26.231
1303.09	28.4441
1304.17	32.6063
1305.26	28.608
1306.34	23.9472
1307.34	23
1308.43	30
1309.52	25
1310.61	30
1311.7	32
1312.78	29
1313.87	29
1314.96	28
1316.04	28
1317.13	31
1318.22	28
1319.3	28
1320.39	24
1321.48	28
1322.56	26
1323.65	28
1324.73	27
1325.82	22
1326.9	24
1327.99	25
1329.07	27
1330.16	25
1331.24	29
1332.33	32
1333.41	29
1334.5	28
1335.58	26
1336.66	32
1337.75	24
1338.83	30
1339.91	28
1341	26
1342.08	34
1343.16	26
1344.24	30
1345.33	27
1346.41	27
1347.49	29
1348.57	29
1349.65	30
1350.74	28
1351.82	29
1352.9	28
1353.98	24
1355.06	28
1356.14	28
1357.22	29
1358.3	24
1359.38	26
1360.46	28
1361.54	27
1362.62	27
1363.7	34
1364.78	23
1365.86	32
1366.94	30
1368.02	24
1369.09	30
1370.17	30
1371.25	36
1372.33	24
1373.41	28
1374.48	26
1375.56	22
1376.64	31
1377.72	28
1378.79	32
1379.87	26
1380.95	24
1382.02	26
1383.1	28
1384.17	30
1385.25	27
1386.33	26
1387.4	33
1388.48	30
1389.55	28
1390.63	33
1391.7	28
1392.78	29
1393.85	28
1394.93	28
1396	22
1397.07	30
1398.15	27
1399.22	30
1400.3	28
1401.37	29
1402.44	30
1403.52	34
1404.59	34
1405.66	34
1406.73	30
1407.81	30
1408.88	31
1409.95	32
1411.02	29
1412.09	31
1413.17	35
1414.24	36
1415.31	35
1416.38	40
1417.45	30
1418.52	26
1419.59	36
1420.66	28
1421.73	31
1422.8	28
1423.87	30
1424.94	31
1426.01	28
1427.08	30
1428.15	27
1429.22	28
1430.29	28
1431.35	33
1432.42	32
1433.49	24
1434.56	32
1435.63	32
1436.69	28
1437.76	26
1438.83	22
1439.9	27
1440.96	31
1442.03	27
1443.1	28
1444.17	29
1445.23	29
1446.3	35
1447.36	32
1448.43	24
1449.49	27
1450.56	27
1451.63	33
1452.69	27
1453.76	32
1454.82	26
1455.89	35
1456.95	32
1458.01	24
1459.08	31
1460.14	31
1461.21	29
1462.27	26
1463.34	28
1464.4	28
1465.46	27
1466.52	22
1467.59	28
1468.65	28
1469.71	30
1470.77	28
1471.84	30
1472.9	30
1473.96	33
1475.02	28
1476.08	26
1477.15	24
1478.21	30
1479.27	29
1480.33	28
1481.39	26
1482.45	27
1483.51	34
1484.57	26
1485.63	32
1486.69	28
1487.75	31
1488.81	28
1489.87	28
1490.93	30
1491.99	28
1493.05	29
1494.1	29
1495.16	29
1496.22	32
1497.28	30
1498.34	32
1499.4	26
1500.45	31
1501.51	33
1502.57	29
1503.63	30
1504.68	26
1505.74	30
1506.8	29
1507.85	32
1508.91	29
1509.97	28
1511.02	32
1512.08	30
1513.13	26
1514.19	28
1515.24	27
1516.3	31
1517.35	32
1518.41	27
1519.46	29
1520.52	32
1521.57	32
1522.63	31
1523.68	30
1524.73	30
1525.79	30
1526.84	28
1527.9	35
1528.95	27
1530	32
1531.05	30
1532.11	32
1533.16	27
1534.21	36
1535.26	27
1536.32	28
1537.37	22
1538.42	26
1539.47	27
1540.52	30
1541.57	29
1542.63	28
1543.68	30
1544.73	27
1545.78	35
1546.83	29
1547.88	28
1548.93	30
1549.98	30
1551.03	25
1552.08	29
1553.13	29
1554.18	27
1555.23	28
1556.27	26
1557.32	28
1558.37	24
1559.42	34
1560.47	28
1561.52	24
1562.56	30
1563.61	26
1564.66	28
1565.71	27
1566.75	26
1567.8	27
1568.85	30
1569.9	27
1570.94	28
1571.99	28
1573.03	30
1574.08	31
1575.13	30
1576.17	30
1577.22	29
1578.26	28
1579.31	33
1580.35	31
1581.4	28
1582.44	32
1583.49	34
1584.53	24
1585.58	27
1586.62	31
1587.66	26
1588.71	32
1589.75	24
1590.8	30
1591.84	29
1592.88	31
1593.92	30
1594.97	29
1596.01	30
1597.05	30
1598.1	32
1599.14	24
1600.18	31
1601.22	29
1602.26	24
1603.3	26
1604.35	32
1605.39	22
1606.43	28
1607.47	33
1608.51	28
1609.55	32
1610.59	33
1611.63	29
1612.67	22
1613.71	26
1614.75	32
1615.79	27
1616.83	31
1617.87	35
1618.91	30
1619.95	30
1620.99	30
1622.02	29
1623.06	24
1624.1	29
1625.14	33
1626.18	29
1627.21	30
1628.25	29
1629.29	28
1630.33	27
1631.36	28
1632.4	33
1633.44	28
1634.48	29
1635.51	28
1636.55	24
1637.58	31
1638.62	28
1639.66	31
1640.69	30
1641.73	28
1642.76	27
1643.8	30
1644.83	23
1645.87	30
1646.9	33
1647.94	30
1648.97	28
1650	27
1651.04	30
1652.07	30
1653.11	28
1654.14	26
1655.17	29
1656.21	26
1657.24	31
1658.27	29
1659.31	28
1660.34	32
1661.37	32
1662.4	20
1663.43	29
1664.47	30
1665.5	31
1666.53	26
1667.56	30
1668.59	30
1669.62	26
1670.66	28
1671.69	28
1672.72	32
1673.75	27
1674.78	28
1675.81	27
1676.84	31
1677.87	28
1678.9	22
1679.93	26
1680.96	30
1681.98	29
1683.01	22
1684.04	24
1685.07	26
1686.1	26
1687.13	29
1688.16	30
1689.18	27
1690.21	24
1691.24	28
1692.27	29
1693.3	30
1694.32	30
1695.35	26
1696.38	27
1697.4	31
1698.43	31
1699.46	32
1700.48	22
1701.51	31
1702.54	24
1703.56	30
1704.59	29
1705.61	30
1706.64	27
1707.66	32
1708.69	28
1709.71	26
1710.74	29
1711.76	30
1712.79	28
1713.81	32
1714.83	32
1715.86	26
1716.88	27
1717.91	29
1718.93	28
1719.95	32
1720.98	29
1722	30
1723.02	31
1724.04	30
1725.07	30
1726.09	24
1727.11	24
1728.13	33
1729.15	32
1730.18	24
1731.2	33
1732.22	27
1733.24	26
1734.26	27
1735.28	26
1736.3	31
1737.32	24
1738.34	29
1739.36	28
1740.38	28
1741.4	34
1742.42	32
1743.44	31
1744.46	23
1745.48	28
1746.5	30
1747.52	34
1748.54	26
1749.56	26
1750.58	26
1751.6	28
1752.61	31
1753.63	26
1754.65	27
1755.67	33
1756.68	30
1757.7	30
1758.72	24
1759.74	24
1760.75	29
1761.77	31
1762.79	31
1763.8	26
1764.82	30
1765.83	28
1766.85	22
1767.87	24
1768.88	31
1769.9	32
1770.91	30
1771.93	28
1772.94	24
1773.96	27
1774.97	31
1775.99	26
1777	27
1778.02	25
1779.03	30
1780.04	24
1781.06	34
1782.07	26
1783.09	26
1784.1	31
1785.11	32
1786.13	24
1787.14	32
1788.15	30
1789.16	34
1790.18	20
1791.19	26
1792.2	30
1793.21	30
1794.22	31
1795.23	30
1796.25	28
1797.26	31
1798.27	28
1799.28	28
1800.29	28
1801.3	28
1802.31	32
1803.32	30
1804.33	29
1805.34	28
1806.35	29
1807.36	24
1808.37	31
1809.38	20
1810.39	28
1811.4	24
1812.41	28
1813.42	29
1814.42	30
1815.43	28
1816.44	30
1817.45	26
1818.46	25
1819.47	22
1820.47	27
1821.48	22
1822.49	28
1823.49	30
1824.5	26
1825.51	20
1826.52	26
1827.52	30
1828.53	26
1829.53	28
1830.54	26
1831.55	28
1832.55	24
1833.56	30
1834.56	28
1835.57	28
1836.57	28
1837.58	32
1838.58	26
1839.59	28
1840.59	28
1841.6	25
1842.6	28
1843.61	30
1844.61	26
1845.61	26
1846.62	27
1847.62	28
1848.62	31
1849.63	26
1850.63	30
1851.63	29
1852.64	25
1853.64	28
1854.64	30
1855.64	28
1856.64	30
1857.65	24
1858.65	29
1859.65	28
1860.65	26
1861.65	27
1862.65	25
1863.65	30
1864.66	20
1865.66	33
1866.66	28
1867.66	34
1868.66	26
1869.66	24
1870.66	27
1871.66	28
1872.66	35
1873.66	27
1874.66	28
1875.65	25
1876.65	29
1877.65	24
1878.65	24
1879.65	26
1880.65	26
1881.65	29
1882.64	32
1883.64	28
1884.64	32
1885.64	26
1886.63	29
1887.63	30
1888.63	30
1889.63	29
1890.62	30
1891.62	28
1892.62	27
1893.61	28
1894.61	22
1895.6	28
1896.6	30
1897.6	31
1898.59	30
1899.59	33
1900.58	30
1901.58	30
1902.57	30
1903.57	26
1904.56	31
1905.56	29
1906.55	32
1907.54	26
1908.54	26
1909.53	23
1910.53	32
1911.52	22
1912.51	28
1913.51	27
1914.5	22
1915.49	30
1916.49	27
1917.48	30
1918.47	26
1919.46	29
1920.46	23
1921.45	28
1922.44	27
1923.43	28
1924.42	24
1925.41	32
1926.41	30
1927.4	32
1928.39	33
1929.38	30
1930.37	28
1931.36	24
1932.35	28
1933.34	28
1934.33	29
1935.32	30
1936.31	28
1937.3	23
1938.29	32
1939.28	30
1940.27	29
1941.26	29
1942.24	30
1943.23	27
1944.22	30
1945.21	27
1946.2	26
1947.19	28
1948.17	23
1949.16	29
1950.15	28
1951.14	27
1952.12	24
1953.11	30
1954.1	26
1955.09	30
1956.07	30
1957.06	26
1958.05	30
1959.03	26
1960.02	32
1961	28
1961.99	29
1962.98	28
1963.96	30
1964.95	28
1965.93	31
1966.92	28
1967.9	29
1968.89	26
1969.87	28
1970.85	24
1971.84	26
1972.82	27
1973.81	30
1974.79	28
1975.78	27
1976.76	27
1977.74	26
1978.73	27
1979.71	23
1980.69	26
1981.67	28
1982.66	33
1983.64	24
1984.62	30
1985.6	25
1986.59	26
1987.57	32
1988.55	27
1989.53	28
1990.51	29
1991.49	22
1992.47	27
1993.45	24
1994.44	29
1995.42	26
1996.4	25
1997.38	26
1998.36	30
1999.34	24
2000.32	26
2001.3	31
2002.28	24
2003.26	27
2004.24	28
2005.22	28
2006.19	28
2007.17	28
2008.15	26
2009.13	33
2010.11	26
2011.09	28
2012.06	29
2013.04	31
2014.02	28
2015	28
2015.98	28
2016.95	22
2017.93	20
2018.91	26
2019.88	26
2020.86	24
2021.84	29
2022.81	28
2023.79	26
2024.77	24
2025.74	26
2026.72	25
2027.69	29
2028.67	27
2029.65	29
2030.62	25
2031.6	24
2032.57	28
2033.55	28
2034.52	28
2035.5	28
2036.47	32
2037.44	30
2038.42	25
2039.39	27
2040.36	26
2041.34	31
2042.31	22
2043.29	28
2044.26	29
2045.23	28
2046.2	25
2047.18	28
2048.15	20
2049.12	26
2050.09	26
2051.07	30
2052.04	24
2053.01	25
2053.98	27
2054.95	28
2055.93	27
2056.9	30
2057.87	25
2058.84	32
2059.81	29
2060.78	24
2061.75	23
2062.72	30
2063.69	30
2064.66	28
2065.63	26
2066.6	31
2067.57	26
2068.54	24
2069.51	26
2070.48	24
2071.45	25
2072.42	30
2073.38	28
2074.35	27
2075.32	30
2076.29	26
2077.26	28
2078.23	28
2079.19	24
2080.16	28
2081.13	27
2082.1	27
2083.06	28
2084.03	26
2085	26
2085.96	24
2086.93	24
2087.9	26
2088.86	29
2089.83	24
2090.8	23
2091.76	31
2092.73	31
2093.69	26
2094.66	29
2095.62	26
2096.59	26
2097.55	24
2098.52	28
2099.48	30
2100.45	29
2101.41	23
2102.38	23
2103.34	22
2104.31	28
2105.27	26
2106.23	22
2107.2	27
2108.16	25
2109.12	22
2110.09	28
2111.05	28
2112.01	26
2112.98	23
2113.94	24
2114.9	23
2115.86	22
2116.82	30
2117.79	27
2118.75	33
2119.71	27
2120.67	32
2121.63	28
2122.59	27
2123.55	26
2124.52	27
2125.48	27
2126.44	27
2127.4	28
2128.36	28
2129.32	29
2130.28	26
2131.24	27
2132.2	26
2133.16	22
2134.12	22
2135.08	22
2136.04	24
2136.99	24
2137.95	31
2138.91	26
2139.87	24
2140.83	29
2141.79	24
2142.75	24
2143.7	23
2144.66	31
2145.62	26.003
2146.58	27.9291
2147.53	28.9166
2148.49	25.215
2149.45	25.8744
2150.41	27.8267
2151.36	28.5666
2152.32	24.0957
2153.27	25.3889
2154.23	29.4412
2155.19	25.8179
2156.14	26.3055
2157.1	27.2557
2158.06	23.5072
2159.01	24.6775
2159.97	21.7219
2160.92	24.6471
2161.88	26.3395
2162.83	26
2163.79	27.6176
2164.74	22.0038
2165.7	28.3597
2166.65	22.8824
2167.61	24.0093
2168.56	24.7027
2169.51	23.8018
2170.47	23.9643
2171.42	29.1127
2172.38	29.3909
2173.33	28
2174.28	25.1961
2175.24	29.0921
2176.19	27.767
2177.14	18.7715
2178.09	25.2227
2179.05	28.8731
2180	28.5987
2180.95	22.7662
2181.9	27.2204
2182.86	26.1558
2183.81	27.6687
2184.76	25.0481
2185.71	25.0567
2186.66	24.1103
2187.61	24.6927
2188.57	27.3161
2189.52	26.4917
2190.47	26.5318
2191.42	25.8322
2192.37	26.5588
2193.32	28.671
2194.27	24.4289
2195.22	23.6865
2196.17	26.607
2197.12	27.8289
2198.07	28.0483
2199.02	27.2029
2199.97	24.6538
2200.92	25.3468
2201.87	23.4028
2202.82	24.8137
2203.76	26.6921
2204.71	26.2683
2205.66	23.901
2206.61	24.8624
2207.56	23.9667
2208.51	23.3679
2209.45	24.0035
2210.4	27.1669
2211.35	27.3186
2212.3	27.3008
2213.24	25.414
2214.19	23.5404
2215.14	25.4846
2216.09	27.8873
2217.03	24.1435
2217.98	24.5976
2218.93	24.2248
2219.87	24.4608
2220.82	23.3601
2221.77	24.265
2222.71	27.3872
2223.66	24.5371
2224.6	27.3003
2225.55	26.2353
2226.49	29.0885
2227.44	26.3203
2228.38	25.6781
2229.33	25.4505
2230.27	25.813
2231.22	27.0012
2232.16	28.1541
2233.11	26.736
2234.05	24.2081
2235	26.4389
2235.94	24.3743
2236.88	27.1592
2237.83	27.9559
2238.77	27.5173
2239.71	27.2508
2240.66	23.6371
2241.6	20.8567
2242	20
2242.95	27
2243.9	27
2244.84	26
2245.79	28
2246.74	26
2247.69	26
2248.63	28
2249.58	29
2250.53	24
2251.47	28
2252.42	22
2253.37	28
2254.31	26
2255.26	28
2256.2	28
2257.15	25
2258.1	24
2259.04	26
2259.99	27
2260.93	23
2261.88	25
2262.82	29
2263.77	26
2264.71	28
2265.65	25
2266.6	26
2267.54	28
2268.49	30
2269.43	26
2270.38	26
2271.32	32
2272.26	23
2273.21	25
2274.15	24
2275.09	28
2276.04	27
2276.98	24
2277.92	21
2278.86	26
2279.81	27
2280.75	26
2281.69	24
2282.63	25
2283.57	30
2284.52	27
2285.46	28
2286.4	26
2287.34	30
2288.28	27
2289.22	26
2290.16	25
2291.1	26
2292.04	24
2292.98	24
2293.93	28
2294.86	22
2295.8	25
2296.74	20
2297.69	27
2298.62	26
2299.56	27
2300.5	24
2301.44	26
2302.38	26
2303.32	24
2304.26	27
2305.2	28
2306.14	28
2307.07	24
2308.01	29
2308.95	26
2309.89	27
2310.83	20
2311.76	26
2312.7	26
2313.64	27
2314.58	22
2315.51	30
2316.45	30
2317.39	26
2318.32	28
2319.26	24
2320.2	29
2321.13	25
2322.07	26
2323	26
2323.94	26
2324.88	30
2325.81	28
2326.75	27
2327.68	28
2328.62	28
2329.55	27
2330.49	30
2331.42	26
2332.36	27
2333.29	30
2334.22	28
2335.16	29
2336.09	26
2337.03	34
2337.96	25
2338.89	26
2339.83	22
2340.76	26
2341.69	28
2342.63	26
2343.56	25
2344.49	25
2345.43	30
2346.36	26
2347.29	31
2348.22	24
2349.15	24
2350.09	26
2351.02	26
2351.95	24
2352.88	27
2353.81	26
2354.74	26
2355.67	30
2356.61	24
2357.54	24
2358.47	31
2359.4	29
2360.33	24
2361.26	28
2362.19	28
2363.12	30
2364.05	26
2364.98	20
2365.91	25
2366.84	27
2367.77	24
2368.7	26
2369.62	26
2370.55	25
2371.48	24
2372.41	31
2373.34	26
2374.27	27
2375.2	28
2376.12	26
2377.05	28
2377.98	28
2378.91	28
2379.83	24
2380.76	26
2381.69	30
2382.62	24
2383.54	29
2384.47	25
2385.4	28
2386.32	28
2387.25	28
2388.18	28
2389.1	33
2390.03	31
2390.95	26
2391.88	26
2392.81	28
2393.73	28
2394.66	24
2395.58	23
2396.51	24
2397.43	23
2398.36	28
2399.28	25
2400.2	29
2401.13	29
2402.05	30
2402.98	28
2403.9	26
2404.83	24
2405.75	30
2406.67	28
2407.6	28
2408.52	22
2409.44	26
2410.37	27
2411.29	28
2412.21	31
2413.13	28
2414.06	24
2414.98	31
2415.9	25
2416.82	30
2417.74	26
2418.67	26
2419.59	28
2420.51	25
2421.43	24
2422.35	22
2423.27	22
2424.19	30
2425.11	26
2426.03	24
2426.96	26
2427.88	23
2428.8	29
2429.72	32
2430.64	24
2431.56	34
2432.48	26
2433.39	29
2434.31	26
2435.23	28
2436.15	28
2437.07	24
2437.99	32
2438.91	28
2439.83	31
2440.75	22
2441.67	24
2442.58	22
2443.5	27
2444.42	20
2445.34	29
2446.26	27
2447.17	25
2448.09	26
2449.01	27
2449.92	26
2450.84	28
2451.76	27
2452.68	31
2453.59	28
2454.51	30
2455.42	26
2456.34	25
2457.26	26
2458.17	27
2459.09	30
2460	29
2460.92	30
2461.83	26
2462.75	26
2463.66	25
2464.58	32
2465.49	28
2466.41	31
2467.32	26
2468.24	27
2469.15	26
2470.07	29
2470.98	30
2471.89	30
2472.81	28
2473.72	26
2474.64	28
2475.55	32
2476.46	32
2477.37	28
2478.29	28
2479.2	26
2480.11	28
2481.03	27
2481.94	27
2482.85	25
2483.76	28
2484.67	29
2485.59	25
2486.5	29
2487.41	20
2488.32	28
2489.23	25
2490.14	22
2491.05	25
2491.97	28
2492.88	29
2493.79	25
2494.7	25
2495.61	22
2496.52	26
2497.43	27
2498.34	28
2499.25	30
2500.16	28
2501.07	27
2501.98	26
2502.89	25
2503.79	27
2504.7	31
2505.61	30
2506.52	32
2507.43	27
2508.34	30
2509.25	31
2510.16	26
2511.06	31
2511.97	24
2512.88	26
2513.79	32
2514.69	28
2515.6	26
2516.51	24
2517.42	26
2518.32	28
2519.23	30
2520.14	22
2521.04	26
2521.95	31
2522.86	24
2523.76	22
2524.67	22
2525.57	33
2526.48	29
2527.39	26
2528.29	31
2529.2	26
2530.1	26
2531.01	28
2531.91	28
2532.82	31
2533.72	27
2534.63	26
2535.53	29
2536.44	23
2537.34	24
2538.24	22
2539.15	26
2540.05	33
2540.96	30
2541.86	26
2542.76	27
2543.67	27
2544.57	31
2545.47	30
2546.37	28
2547.28	25
2548.18	26
2549.08	26
2549.99	30
2550.89	30
2551.79	24
2552.69	27
2553.59	25
2554.49	28
2555.4	24
2556.3	22
2557.2	32
2558.1	33
2559	27
2559.9	28
2560.8	25
2561.7	33
2562.6	28
2563.5	25
2564.4	28
2565.3	26
2566.2	26
2567.1	24
2568	24
2568.9	27
2569.8	26
2570.7	22
2571.6	26
2572.5	30
2573.4	24
2574.3	26
2575.2	26
2576.1	26
2576.99	26
2577.89	25
2578.79	30
2579.69	25
2580.59	28
2581.48	27
2582.38	28
2583.28	25
2584.18	33
2585.07	24
2585.97	27
2586.87	28
2587.76	25
2588.66	30
2589.56	29
2590.45	26
2591.35	30
2592.25	27
2593.14	30
2594.04	20
2594.93	27
2595.83	30
2596.73	26
2597.62	30
2598.52	26
2599.41	27
2600.31	32
2601.2	24
2602.1	30
2602.99	24
2603.88	14
2604.78	28
2605.67	29
2606.57	29
2607.46	28
2608.35	27
2609.25	27
2610.14	26
2611.03	28
2611.93	30
2612.82	28
2613.71	25
2614.61	27
2615.5	28
2616.39	28
2617.29	26
2618.18	24
2619.07	28
2619.96	28
2620.85	30
2621.75	26
2622.64	30
2623.53	23
2624.42	27
2625.31	27
2626.2	22
2627.09	26
2627.98	30
2628.88	22
2629.77	22
2630.66	22
2631.55	26
2632.44	28
2633.33	28
2634.22	27
2635.11	30
2636	24
2636.89	24
2637.78	24
2638.66	29
2639.55	31
2640.44	26
2641.33	24
2642.22	24
2643.11	26
2644	31
2644.89	25
2645.78	25
2646.66	27
2647.55	31
2648.44	30
2649.33	25
2650.21	30
2651.1	20
2651.99	24
2652.88	24
2653.76	30
2654.65	32
2655.54	27
2656.42	24
2657.31	33
2658.2	26
2659.08	30
2659.97	30
2660.86	26
2661.74	27
2662.63	28
2663.51	28
2664.4	31
2665.29	31
2666.17	24
2667.06	29
2667.94	24
2668.83	26
2669.71	29
2670.6	31
2671.48	18
2672.36	23
2673.25	25
2674.13	24
2675.02	27
2675.9	27
2676.78	27
2677.67	27
2678.55	28
2679.43	25
2680.32	29
2681.2	30
2682.08	24
2682.97	31
2683.85	28
2684.73	31
2685.61	30
2686.5	31
2687.38	28
2688.26	25
2689.14	32
2690.03	30
2690.91	22
2691.79	28
2692.67	26
2693.55	27
2694.43	24
2695.31	26
2696.19	27
2697.08	33
2697.96	28
2698.84	24
2699.72	24
2700.6	28
2701.48	24
2702.36	28
2703.24	25
2704.12	28
2705	29
2705.88	26
2706.76	30
2707.64	24
2708.51	26
2709.39	24
2710.27	22
2711.15	30
2712.03	27
2712.91	32
2713.79	22
2714.67	30
2715.54	24
2716.42	22
2717.3	32
2718.18	31
2719.05	24
2719.93	28
2720.81	27
2721.69	34
2722.56	26
2723.44	24
2724.32	28
2725.19	27
2726.07	26
2726.95	25
2727.82	28
2728.7	24
2729.58	28
2730.45	30
2731.33	27
2732.2	29
2733.08	32
2733.95	26
2734.83	28
2735.7	26
2736.58	26
2737.45	26
2738.33	29
2739.2	26
2740.08	27
2740.95	26
2741.83	28
2742.7	27
2743.58	25
2744.45	29
2745.32	28
2746.2	28
2747.07	18
2747.94	28
2748.82	28
2749.69	23
2750.56	22
2751.44	30
2752.31	26
2753.18	23
2754.05	31
2754.93	28
2755.8	24
2756.67	31
2757.54	32
2758.42	24
2759.29	26
2760.16	25
2761.03	26
2761.9	30
2762.77	27
2763.64	26
2764.51	24
2765.38	28
2766.26	29
2767.13	26
2768	27
2768.87	29
2769.74	27
2770.61	24
2771.48	28
2772.35	26
2773.22	27
2774.09	30
2774.96	31
2775.83	28
2776.7	31
2777.56	24
2778.43	25
2779.3	29
2780.17	25
2781.04	30
2781.91	26
2782.78	31
2783.64	27
2784.51	29
2785.38	26
2786.25	25
2787.12	27
2787.98	24
2788.85	27
2789.72	26
2790.59	29
2791.45	30
2792.32	28
2793.19	29
2794.05	32
2794.92	29
2795.79	25
2796.65	26
2797.52	30
2798.38	26
2799.25	27
2800.12	28
2800.98	26
2801.85	29
2802.71	24
2803.58	28.5
2804.44	27
2805.31	29
2806.17	32
2807.04	24
2807.9	29
2808.77	30
2809.63	26
2810.5	26
2811.36	24
2812.22	35
2813.09	28
2813.95	28
2814.82	31
2815.68	28
2816.54	30
2817.41	25
2818.27	26
2819.13	32
2820	31
2820.86	30
2821.72	32
2822.58	27
2823.45	18
2824.31	23
2825.17	28
2826.03	26
2826.9	29
2827.76	31
2828.62	30
2829.48	29
2830.34	28
2831.2	26
2832.06	30
2832.92	28
2833.79	24
2834.65	28
2835.51	28
2836.37	20
2837.23	29
2838.09	24
2838.95	30
2839.81	30
2840.67	23
2841.53	26
2842.39	30
2843.25	24
2844.11	29
2844.97	31
2845.83	26
2846.68	28
2847.54	30
2848.4	30
2849.26	26
2850.12	27
2850.98	28
2851.84	27
2852.69	32
2853.55	28
2854.41	31
2855.27	30
2856.13	28
2856.98	27
2857.84	24
2858.7	27
2859.56	28
2860.41	26
2861.27	28
2862.13	29
2862.98	30
2863.84	31
2864.7	26
2865.55	30
2866.41	26
2867.27	32
2868.12	29
2868.98	34
2869.83	28
2870.69	29
2871.54	31
2872.4	33
2873.25	30
2874.11	26
2874.96	30
2875.82	30
2876.68	32
2877.53	34
2878.38	36
2879.24	32
2880.09	30
2880.95	34
2881.8	34
2882.65	35
2883.51	31
2884.36	31
2885.22	32
2886.07	33
2886.92	32
2887.77	30
2888.63	31
2889.48	34
2890.33	40
2891.19	40
2892.04	39
2892.89	38
2893.74	38
2894.6	42
2895.45	47
2896.3	43
2897.15	40
2898	49
2898.85	46
2899.71	52
2900.56	52
2901.41	58
2902.26	58
2903.11	58
2903.96	63
2904.81	58
2905.66	68
2906.51	68
2907.36	66
2908.21	58
2909.06	60
2909.91	63
2910.76	56
2911.61	58
2912.46	50
2913.31	48
2914.16	50
2915.01	43
2915.86	44
2916.71	44
2917.56	42
2918.41	40
2919.26	39
2920.1	39
2920.95	36
2921.8	35
2922.65	26
2923.5	33
2924.34	36
2925.19	36
2926.04	35
2926.89	32
2927.74	30
2928.58	37
2929.43	30
2930.28	34
2931.12	32
2931.97	25
2932.82	30
2933.66	30
2934.51	28
2935.36	30
2936.2	30
2937.05	30
2937.89	34
2938.74	28
2939.59	31
2940.43	32
2941.28	29
2942.12	31
2942.97	29
2943.81	27
2944.66	29
2945.5	29
2946.35	32
2947.19	27
2948.04	28
2948.88	29
2949.72	34
2950.57	30
2951.41	35
2952.26	26
2953.1	31
2953.94	31
2954.79	33
2955.63	26
2956.47	39
2957.32	30
2958.16	42
2959	32
2959.85	38
2960.69	42
2961.53	38
2962.37	42
2963.22	44
2964.06	38
2964.9	44
2965.74	45
2966.58	45
2967.42	42
2968.27	37
2969.11	46
2969.95	39
2970.79	44
2971.63	40
2972.47	37
2973.31	36
2974.15	41
2974.99	31
2975.83	39
2976.68	32
2977.52	26
2978.36	34
2979.2	32
2980.04	34
2980.88	34
2981.71	28
2982.55	32
2983.39	32
2984.23	32
2985.07	30
2985.91	28
2986.75	29
2987.59	26
2988.43	27
2989.27	27
2990.1	29
2990.94	26
2991.78	30
2992.62	24
2993.46	28
2994.3	26
2995.13	25
2995.97	26
2996.81	30
2997.64	24
2998.48	34
2999.32	24
